-0.06212	0
-0.060475	0.0005
-0.073305	0.001
-0.083174	0.0015
-0.071989	0.002
-0.044355	0.0025
-0.014419	0.003
0.0082805	0.0035
0.051376	0.004
0.12441	        0.0045
0.18823 	0.005
0.21784 	0.0055
0.22705 	0.006
0.21488 	0.0065
0.17803	        0.007
0.12572 	0.0075
0.077694	0.008
0.034269	0.0085
-0.012116	0.009
-0.062778	0.0095
-0.10883	0.01
-0.14436	0.0105
-0.1664 	0.011
-0.16936	0.0115
-0.16081	0.012
-0.14798	0.0125
-0.14601	0.013
-0.14338	0.0135
-0.11903	0.014
-0.090411	0.0145
-0.076265	0.015
-0.061791	0.0155
-0.041394	0.016
-0.016721	0.0165
-0.00027255	0.017
0.015847	0.0175
0.041836	0.018
0.062561	0.0185
0.069798	0.019
0.071114	0.0195
0.06618 	0.02
0.05335 	0.0205
0.046112	0.021
0.040849	0.0215
0.013873	0.022
-0.01705	0.0225
-0.043368	0.023
-0.066067	0.0235
-0.070015	0.024
-0.057185	0.0245
-0.031525	0.025
-0.0025755	0.0255
0.017492	0.026
0.026703	0.0265
0.02769 	0.027
0.026374	0.0275
0.025716	0.028
0.019136	0.0285
0.013215	0.029
0.010254	0.0295
0.00071445	0.03
-0.0042205	0.0305
0.00038545	0.031
0.013544	0.0315
0.015518	0.032
0.0046625	0.0325
0.0089385	0.033
0.029993	0.0335
0.041836	0.034
0.047428	0.0345
0.061574	0.035
0.06289	        0.0355
0.056968	0.036
0.065851	0.0365
0.06289 	0.037
0.041836	0.0375
0.031308	0.038
0.035585	0.0385
0.067824	0.039
0.1379  	0.0395
0.1675   	0.04
0.13132 	0.0405
0.10434 	0.041
0.11355 	0.0415
0.12178 	0.042
0.10533 	0.0425
0.073088	0.043
0.016176	0.0435
-0.059159	0.044
-0.10916	0.0445
-0.11541	0.045
-0.10028	0.0455
-0.090082	0.046
-0.099622	0.0465
-0.11837	0.047
-0.11245	0.0475
-0.080871	0.048
-0.053895	0.0485
-0.036131	0.049
-0.021985	0.0495
-0.013103	0.05
-0.015406	0.0505
-0.028893	0.051
-0.051922	0.0515
-0.075608	0.052
-0.087779	0.0525
-0.093043	0.053
-0.095346	0.0535
-0.095675	0.054
-0.086793	0.0545
-0.069357	0.055
-0.050935	0.0555
-0.041394	0.056
-0.024288	0.0565
-0.00060155	0.057
0.013215	0.0575
0.015847	0.058
0.012886	0.0585
0.016505	0.059
0.025716	0.0595
0.021768	0.06
-0.0012595	0.0605
-0.026262	0.061
-0.030867	0.0615
-0.019353	0.062
-0.0061935	0.0625
0.01157 	0.063
0.015847	0.0635
-0.0015885	0.064
-0.015406	0.0645
0.020123	0.065
0.11421 	0.0655
0.21356 	0.066
0.29284 	0.0665
0.33758 	0.067
0.3491  	0.0675
0.33824 	0.068
0.30633 	0.0685
0.25929 	0.069
0.18527 	0.0695
0.08855 	0.07
-0.038105	0.0705
-0.16805	0.071
-0.25391	0.0715
-0.2845 	0.072
-0.28483	0.0725
-0.26838	0.073
-0.24996	0.0735
-0.24733	0.074
-0.23911	0.0745
-0.20785	0.075
-0.17101	0.0755
-0.13877	0.076
-0.11015	0.0765
-0.081529	0.077
-0.061133	0.0775
-0.04271	0.078
-0.025604	0.0785
-0.016064	0.079
-0.012774	0.0795
-0.0055355	0.08
0.020123	0.0805
0.052363	0.081
0.074733	0.0815
0.091181	0.082
0.097103	0.0825
0.099077	0.083
0.10533 	0.0835
0.11322 	0.084
0.11487 	0.0845
0.10467 	0.085
0.074404	0.0855
0.031308	0.086
0.0010435	0.0865
-0.020998	0.087
-0.047316	0.0875
-0.061791	0.088
-0.053566	0.0885
-0.046658	0.089
-0.071331	0.0895
-0.086464	0.09
-0.077581	0.0905
-0.071331	0.091
-0.063107	0.0915
-0.0068515	0.092
0.048086	0.0925
0.040191	0.093
0.011241	0.0935
0.011241	0.094
0.042822	0.0945
0.075391	0.095
0.07868 	0.0955
0.043809	0.096
-0.00060155	0.0965
-0.0022465	0.097
0.03394	        0.0975
0.091839	0.098
0.13362 	0.0985
0.12836 	0.099
0.10467 	0.0995
0.10566 	0.1
0.11684 	0.1005
0.10928 	0.101
0.080654	0.1015
0.03723 	0.102
-0.013432	0.1025
-0.069357	0.103
-0.11541	0.1035
-0.14601	0.104
-0.1641 	0.1045
-0.17594	0.105
-0.18187	0.1055
-0.16772	0.106
-0.13186	0.1065
-0.095346	0.107
-0.081529	0.1075
-0.084819	0.108
-0.078897	0.1085
-0.058501	0.109
-0.028236	0.1095
-0.0038915	0.11
0.0036755	0.1105
0.00071445	0.111
0.0066365	0.1115
0.01815 	0.112
0.033611	0.1125
0.053679	0.113
0.062232	0.1135
0.052034	0.114
0.042494	0.1145
0.048415	0.115
0.057297	0.1155
0.05006 	0.116
0.029335	0.1165
0.017821	0.117
0.01815 	0.1175
0.020781	0.118
0.036572	0.1185
0.061574	0.119
0.068153	0.1195
0.052034	0.12
0.028019	0.1205
0.013544	0.121
0.010254	0.1215
0.01157 	0.122
0.0092675	0.1225
0.01157	        0.123
0.010912	0.1235
0.0030175	0.124
0.0043335	0.1245
0.014531	0.125
0.014531	0.1255
-0.0061935	0.126
-0.026262	0.1265
-0.021327	0.127
-0.0019175	0.1275
0.0030175	0.128
-0.0022465	0.1285
0.0049915	0.129
0.015518	0.1295
0.013873	0.13
0.00038545	0.1305
0.00038545	0.131
0.0244  	0.1315
0.051047	0.132
0.052692	0.1325
0.041178	0.133
0.044138	0.1335
0.056968	0.134
0.052692	0.1345
0.028348	0.135
-0.0022465	0.1355
-0.03317	0.136
-0.060804	0.1365
-0.070344	0.137
-0.053237	0.1375
-0.032841	0.138
-0.02988	0.1385
-0.037118	0.139
-0.035473	0.1395
-0.021327	0.14
-0.0075095	0.1405
-0.0094835	0.141
-0.0061935	0.1415
0.032953	0.142
0.07868 	0.1425
0.093813	0.143
0.13197 	0.1435
0.20172 	0.144
0.22902 	0.1445
0.2027  	0.145
0.16948 	0.1455
0.14875 	0.146
0.12474 	0.1465
0.093813	0.147
0.0596  	0.1475
0.012886	0.148
-0.050606	0.1485
-0.11607	0.149
-0.17035	0.1495
-0.19009	0.15
-0.16673	0.1505
-0.13943	0.151
-0.1368 	0.1515
-0.13285	0.152
-0.12758	0.1525
-0.13055	0.153
-0.11673	0.1535
-0.083503	0.154
-0.056856	0.1545
-0.037447	0.155
-0.027907	0.1555
-0.023959	0.156
-0.016393	0.1565
0.0076225	0.157
0.047099	0.1575
0.066508	0.158
0.056639	0.1585
0.068153	0.159
0.1096  	0.1595
0.1277  	0.16
0.11618 	0.1605
0.11355 	0.161
0.13296 	0.1615
0.14415 	0.162
0.11947 	0.1625
0.073417	0.163
0.030322	0.1635
-0.0094835	0.164
-0.048961	0.1645
-0.067712	0.165
-0.069028	0.1655
-0.0812 	0.166
-0.11081	0.1665
-0.12791	0.167
-0.11179	0.1675
-0.09732	0.168
-0.10225	0.1685
-0.1039 	0.169
-0.093701	0.1695
-0.091069	0.17
-0.1016 	0.1705
-0.12166	0.171
-0.15588	0.1715
-0.17068	0.172
-0.14798	0.1725
-0.11837	0.173
-0.10094	0.1735
-0.07791	0.174
-0.067383	0.1745
-0.066725	0.175
-0.058501	0.1755
-0.037118	0.176
-0.012774	0.1765
0.016834	0.177
0.074404	0.1775
0.15566 	0.178
0.22343 	0.1785
0.25172 	0.179
0.23297 	0.1795
0.20402 	0.18
0.21981 	0.1805
0.2254  	0.181
0.15533 	0.1815
0.062232	0.182
-0.0035625	0.1825
-0.029551	0.183
-0.044026	0.1835
-0.086793	0.184
-0.13219	0.1845
-0.14403	0.185
-0.14305	0.1855
-0.14338	0.186
-0.12758	0.1865
-0.091727	0.187
-0.060146	0.1875
-0.049948	0.188
-0.048632	0.1885
-0.037447	0.189
-0.017379	0.1895
0.0059785	0.19
0.019465	0.1905
0.022756	0.191
0.040849	0.1915
0.084273	0.192
0.11059 	0.1925
0.097432	0.193
0.092497	0.1935
0.10631 	0.194
0.090523	0.1945
0.063877	0.195
0.047428	0.1955
0.039204	0.196
0.03723 	0.1965
0.032624	0.197
0.023742	0.1975
0.0076225	0.198
-0.0081675	0.1985
-0.0108 	0.199
-0.020011	0.1995
-0.042052	0.2
-0.068699	0.2005
-0.09074	0.201
-0.098307	0.2015
-0.092056	0.202
-0.079884	0.2025
-0.066725	0.203
-0.055211	0.2035
-0.048303	0.204
-0.041723	0.2045
-0.028893	0.205
-0.013103	0.2055
-0.00060155	0.206
0.0026885	0.2065
0.0059785	0.207
0.01815 	0.2075
0.031966	0.208
0.039862	0.2085
0.036572	0.209
0.034269	0.2095
0.041836	0.21
0.05006 	0.2105
0.060587	0.211
0.068153	0.2115
0.072101	0.212
0.073088	0.2125
0.061574	0.213
0.05006 	0.2135
0.034269	0.214
0.00038545	0.2145
-0.030209	0.215
-0.029222	0.2155
-0.0061935	0.216
0.0076225	0.2165
0.0043335	0.217
0.00071445	0.2175
0.0059785	0.218
0.030322	0.2185
0.090523	0.219
0.13461 	0.2195
0.15336 	0.22
0.17803 	0.2205
0.18691 	0.221
0.16783 	0.2215
0.1277  	0.222
0.10171 	0.2225
0.072101	0.223
0.033611	0.2235
0.0066365	0.224
-0.02988	0.2245
-0.087451	0.225
-0.14272	0.2255
-0.17101	0.226
-0.16377	0.2265
-0.14568	0.227
-0.14864	0.2275
-0.15028	0.228
-0.14338	0.2285
-0.14864	0.229
-0.15489	0.2295
-0.13186	0.23
-0.092385	0.2305
-0.053895	0.231
-0.0012595	0.2315
0.049731	0.232
0.059929	0.2325
0.040191	0.233
0.061903	0.2335
0.10401 	0.234
0.12375 	0.2345
0.15994 	0.235
0.21652 	0.2355
0.23132 	0.236
0.17244 	0.2365
0.086576	0.237
0.028348	0.2375
-0.0084965	0.238
-0.048961	0.2385
-0.11245	0.239
-0.18154	0.2395
-0.23417	0.24
-0.24634	0.2405
-0.22924	0.241
-0.20654	0.2415
-0.18713	0.242
-0.16673	0.2425
-0.13614	0.243
-0.1141 	0.2435
-0.10423	0.244
-0.094688	0.2445
-0.080213	0.245
-0.060146	0.2455
-0.047645	0.246
-0.041065	0.2465
-0.031525	0.247
-0.020011	0.2475
5.65E-05	0.248
0.045125	0.2485
0.087563	0.249
0.093484	0.2495
0.091839	0.25
0.10533 	0.2505
0.13757 	0.251
0.1731  	0.2515
0.2004  	0.252
0.20928 	0.2525
0.19645 	0.253
0.17244 	0.2535
0.13428 	0.254
0.075391	0.2545
0.032295	0.255
0.010912	0.2555
-0.011787	0.256
-0.053566	0.2565
-0.10982	0.257
-0.13581	0.2575
-0.11739	0.258
-0.094688	0.2585
-0.089753	0.259
-0.082187	0.2595
-0.065738	0.26
-0.056856	0.2605
-0.054224	0.261
-0.047974	0.2615
-0.04271	0.262
-0.02692	0.2625
0.023413	0.263
0.090852	0.2635
0.11355 	0.264
0.096116	0.2645
0.083615	0.265
0.094471	0.2655
0.10631 	0.266
0.0948  	0.2665
0.062232	0.267
0.029993	0.2675
0.018479	0.268
0.024729	0.2685
0.039533	0.269
0.039204	0.2695
-0.0075095	0.27
-0.075608	0.2705
-0.10225	0.271
-0.099622	0.2715
-0.1062 	0.272
-0.10258	0.2725
-0.076923	0.273
-0.046658	0.2735
-0.020011	0.274
-0.0061935	0.2745
-0.0108	        0.275
-0.0091545	0.2755
0.0036755	0.276
0.012886	0.2765
0.014202	0.277
0.0089385	0.2775
0.011241	0.278
0.015518	0.2785
0.016176	0.279
0.018808	0.2795
0.023084	0.28
0.037559	0.2805
0.05006 	0.281
0.058613	0.2815
0.070456	0.282
0.0948  	0.2825
0.13099 	0.283
0.17342 	0.2835
0.18297 	0.284
0.14349 	0.2845
0.094142	0.285
0.075062	0.2855
0.069798	0.286
0.034927	0.2865
-0.028236	0.287
-0.079884	0.2875
-0.10225	0.288
-0.11048	0.2885
-0.11344	0.289
-0.10028	0.2895
-0.085148	0.29
-0.075608	0.2905
-0.056856	0.291
-0.034157	0.2915
-0.027907	0.292
-0.034486	0.2925
-0.049619	0.293
-0.065409	0.2935
-0.069686	0.294
-0.067712	0.2945
-0.058501	0.295
-0.049619	0.2955
-0.043368	0.296
-0.035802	0.2965
-0.025933	0.297
-0.018695	0.2975
-0.017379	0.298
-0.012445	0.2985
0.013215	0.299
0.061574	0.2995
0.090523	0.3
0.10434 	0.3005
0.14184 	0.301
0.19678 	0.3015
0.23165 	0.302
0.21389 	0.3025
0.15928 	0.303
0.11421 	0.3035
0.079338	0.304
0.033611	0.3045
-0.017708	0.305
-0.06837	0.3055
-0.1016 	0.306
-0.13318	0.3065
-0.18219	0.307
-0.21114	0.3075
-0.19404	0.308
-0.15621	0.3085
-0.12594	0.309
-0.12068	0.3095
-0.12726	0.31
-0.12364	0.3105
-0.10324	0.311
-0.071002	0.3115
-0.039421	0.312
-0.018366	0.3125
-0.0078385	0.313
0.0013725	0.3135
0.016834	0.314
0.034598	0.3145
0.043151	0.315
0.023742	0.3155
0.0023595	0.316
0.0013725	0.3165
0.0036755	0.317
0.0036755	0.3175
0.026703	0.318
0.062561	0.3185
0.082299	0.319
0.093813	0.3195
0.10204 	0.32
0.12342 	0.3205
0.13329 	0.321
0.11322 	0.3215
0.081312	0.322
0.039533	0.3225
-0.0081675	0.323
-0.044026	0.3235
-0.069357	0.324
-0.096991	0.3245
-0.11607	0.325
-0.10489	0.3255
-0.069686	0.326
-0.041065	0.3265
-0.028236	0.327
-0.020669	0.3275
0.0017015	0.328
0.026045	0.3285
0.040849	0.329
0.043809	0.3295
0.059929	0.33
0.089208	0.3305
0.10039 	0.331
0.092168	0.3315
0.079667	0.332
0.11257 	0.3325
0.16191 	0.333
0.14053 	0.3335
0.078351	0.334
0.044796	0.3345
0.031308	0.335
0.0049915	0.3355
-0.019682	0.336
-0.043039	0.3365
-0.095675	0.337
-0.14798	0.3375
-0.14436	0.338
-0.075608	0.3385
-0.011787	0.339
-0.016721	0.3395
-0.05883	0.34
-0.07495	0.3405
-0.05225	0.341
-0.02692	0.3415
-0.022972	0.342
-0.031525	0.3425
-0.032841	0.343
0.0063075	0.3435
0.08197	        0.344
0.15073  	0.3445
0.18527 	0.345
0.18691 	0.3455
0.18757 	0.346
0.21027 	0.3465
0.20895 	0.347
0.14579 	0.3475
0.057297	0.348
-0.035144	0.3485
-0.14272	0.349
-0.23384	0.3495
-0.29306	0.35
-0.32234	0.3505
-0.30326	0.351
-0.25292	0.3515
-0.22299	0.352
-0.21016	0.3525
-0.17792	0.353
-0.13712	0.3535
-0.10949	0.354
-0.10324	0.3545
-0.10094	0.355
-0.086464	0.3555
-0.064093	0.356
-0.046329	0.3565
-0.034157	0.357
-0.022972	0.3575
-0.0052065	0.358
0.030322	0.3585
0.061574	0.359
0.072101	0.3595
0.08197 	0.36
0.11257 	0.3605
0.14119	        0.361
0.14941 	0.3615
0.13921 	0.362
0.11191 	0.3625
0.087892	0.363
0.081312	0.3635
0.076049	0.364
0.054665	0.3645
0.019465	0.365
-0.020998	0.3655
-0.03975	0.366
-0.037118	0.3665
-0.033828	0.367
-0.035473	0.3675
-0.031196	0.368
-0.024288	0.3685
-0.020998	0.369
-0.026262	0.3695
-0.030209	0.37
-0.026262	0.3705
-0.0108	0.371
0.0066365	0.3715
0.016505	0.372
0.029993	0.3725
0.055323	0.373
0.10072	0.3735
0.16948	0.374
0.23396	0.3745
0.23856	0.375
0.21027	0.3755
0.19349	0.376
0.18264	0.3765
0.1504	0.377
0.10467	0.3775
0.047428	0.378
-0.021985	0.3785
-0.092385	0.379
-0.12758	0.3795
-0.12495	0.38
-0.13186	0.3805
-0.15785	0.381
-0.16114	0.3815
-0.13219	0.382
-0.10916	0.3825
-0.099294	0.383
-0.078568	0.3835
-0.057843	0.384
-0.050277	0.3845
-0.055211	0.385
-0.05883	0.3855
-0.05225	0.386
-0.043039	0.3865
-0.035802	0.387
-0.030538	0.3875
-0.025604	0.388
-0.011129	0.3885
0.0089385	0.389
0.02111	0.3895
0.017492	0.39
0.0066365	0.3905
0.0046625	0.391
0.014202	0.3915
0.023742	0.392
0.031308	0.3925
0.039204	0.393
0.06914	0.3935
0.1096	0.394
0.12934	0.3945
0.13757	0.395
0.1379	0.3955
0.12342	0.396
0.12934	0.3965
0.16717	0.397
0.20303	0.3975
0.19908	0.398
0.17902	0.3985
0.18132	0.399
0.18297	0.3995
0.16783	0.4
0.16652	0.4005
0.1675	0.401
0.12803	0.4015
0.055652	0.402
0.0059785	0.4025
-0.019353	0.403
-0.074621	0.4035
-0.15357	0.404
-0.24108	0.4045
-0.30852	0.405
-0.3355	0.4055
-0.32793	0.406
-0.33188	0.4065
-0.34536	0.407
-0.33615	0.4075
-0.29898	0.408
-0.24766	0.4085
-0.19996	0.409
-0.16509	0.4095
-0.13351	0.41
-0.10719	0.4105
-0.087122	0.411
-0.075936	0.4115
-0.063765	0.412
-0.045013	0.4125
-0.028564	0.413
-0.018366	0.4135
-0.0081675	0.414
-0.0065225	0.4145
-0.0052065	0.415
0.017492	0.4155
0.089866	0.416
0.15632	0.4165
0.16257	0.417
0.14184	0.4175
0.13658	0.418
0.13987	0.4185
0.12243	0.419
0.090194	0.4195
0.042822	0.42
-0.0075095	0.4205
-0.038434	0.421
-0.044684	0.4215
-0.030538	0.422
-0.013103	0.4225
-0.017379	0.423
-0.035473	0.4235
-0.034486	0.424
-0.011129	0.4245
0.017492	0.425
0.038217	0.4255
0.039862	0.426
0.03723	0.4265
0.04677	0.427
0.056968	0.4275
0.048086	0.428
0.034927	0.4285
0.029006	0.429
0.024729	0.4295
0.026374	0.43
0.04348	0.4305
0.06914	0.431
0.082299	0.4315
0.072759	0.432
0.056968	0.4325
0.049073	0.433
0.039204	0.4335
0.02769	0.434
0.015189	0.4345
-0.0032335	0.435
-0.012116	0.4355
0.00038545	0.436
0.019794	0.4365
0.030651	0.437
0.035585	0.4375
0.053679	0.438
0.081641	0.4385
0.095458	0.439
0.083615	0.4395
0.073088	0.44
0.075391	0.4405
0.07868	0.441
0.059271	0.4415
0.022097	0.442
-0.0045495	0.4425
-0.019353	0.443
-0.040079	0.4435
-0.058172	0.444
-0.063765	0.4445
-0.060475	0.445
-0.062449	0.4455
-0.065409	0.446
-0.069686	0.4465
-0.073305	0.447
-0.069028	0.4475
-0.057514	0.448
-0.047974	0.4485
-0.039092	0.449
-0.034486	0.4495
-0.037118	0.45
-0.037118	0.4505
-0.026262	0.451
-0.01705	0.4515
-0.017379	0.452
-0.017379	0.4525
-0.0022465	0.453
0.041178	0.4535
0.12737	0.454
0.24646	0.4545
0.31653	0.455
0.31061	0.4555
0.28067	0.456
0.2606	0.4565
0.24613	0.457
0.21882	0.4575
0.16553	0.458
0.064864	0.4585
-0.073963	0.459
-0.20029	0.4595
-0.28187	0.46
-0.31773	0.4605
-0.30424	0.461
-0.26838	0.4615
-0.23944	0.462
-0.21838	0.4625
-0.20489	0.463
-0.19601	0.4635
-0.17397	0.464
-0.15127	0.4645
-0.12923	0.465
-0.10521	0.4655
-0.087779	0.466
-0.081529	0.4665
-0.077581	0.467
-0.064422	0.4675
-0.041065	0.468
-0.015077	0.4685
0.015518	0.469
0.049731	0.4695
0.067166	0.47
0.076707	0.4705
0.087234	0.471
0.089208	0.4715
0.081312	0.472
0.069469	0.4725
0.060587	0.473
0.057297	0.4735
0.05631	0.474
0.057955	0.4745
0.063219	0.475
0.057955	0.4755
0.034598	0.476
0.010583	0.4765
-0.0012595	0.477
-0.011787	0.4775
-0.020998	0.478
-0.025933	0.4785
-0.031525	0.479
-0.038105	0.4795
-0.039421	0.48
-0.02988	0.4805
-0.016064	0.481
-0.015406	0.4815
-0.023301	0.482
-0.026262	0.4825
-0.017379	0.483
0.032624	0.4835
0.088879	0.484
0.096774	0.4845
0.079009	0.485
0.077694	0.4855
0.079667	0.486
0.052363	0.4865
0.020123	0.487
-0.012116	0.4875
-0.047974	0.488
-0.057185	0.4885
-0.036131	0.489
-0.0094835	0.4895
-0.0038915	0.49
-0.01705	0.4905
-0.0108	0.491
0.0046625	0.4915
0.00071445	0.492
-0.0048775	0.4925
0.016505	0.493
0.044467	0.4935
0.060587	0.494
0.068482	0.4945
0.079667	0.495
0.098748	0.4955
0.13066	0.496
0.1448	0.4965
0.12276	0.497
0.096774	0.4975
0.078351	0.498
0.05335	0.4985
0.023742	0.499
-0.0091545	0.4995
-0.035802	0.5
-0.049948	0.5005
-0.069357	0.501
-0.1016	0.5015
-0.1187	0.502
-0.11739	0.5025
-0.10883	0.503
-0.093372	0.5035
-0.077581	0.504
-0.065738	0.5045
-0.056527	0.505
-0.04929	0.5055
-0.046329	0.506
-0.045671	0.5065
-0.047974	0.507
-0.051593	0.5075
-0.046987	0.508
-0.03646	0.5085
-0.023301	0.509
-0.0094835	0.5095
0.0072935	0.51
0.017492	0.5105
0.015847	0.511
0.010254	0.5115
0.0046625	0.512
0.025058	0.5125
0.068482	0.513
0.092168	0.5135
0.095787	0.514
0.11454	0.5145
0.17112	0.515
0.21191	0.5155
0.18922	0.516
0.13954	0.5165
0.11224	0.517
0.10664	0.5175
0.096445	0.518
0.055652	0.5185
-0.00027255	0.519
-0.042052	0.5195
-0.079226	0.52
-0.11772	0.5205
-0.13614	0.521
-0.13712	0.5215
-0.13416	0.522
-0.12594	0.5225
-0.12429	0.523
-0.13351	0.5235
-0.1437	0.524
-0.13219	0.5245
-0.10061	0.525
-0.074292	0.5255
-0.064751	0.526
-0.061133	0.5265
-0.050606	0.527
-0.033828	0.5275
-0.021656	0.528
-0.021985	0.5285
-0.022314	0.529
-0.011129	0.5295
0.0010435	0.53
0.0059785	0.5305
0.01815	0.531
0.025387	0.5315
0.018808	0.532
0.017492	0.5325
0.032624	0.533
0.049073	0.5335
0.058942	0.534
0.058284	0.5345
0.081312	0.535
0.13362	0.5355
0.15763	0.536
0.12671	0.5365
0.078351	0.537
0.076378	0.5375
0.12309	0.538
0.14283	0.5385
0.10072	0.539
0.042494	0.5395
0.0020305	0.54
-0.051922	0.5405
-0.11772	0.541
-0.13581	0.5415
-0.094688	0.542
-0.079555	0.5425
-0.098307	0.543
-0.086135	0.5435
-0.039421	0.544
-0.01705	0.5445
-0.020669	0.545
-0.02988	0.5455
-0.052908	0.546
-0.076594	0.5465
-0.068699	0.547
-0.017379	0.5475
0.029006	0.548
0.038875	0.5485
0.024071	0.549
0.0023595	0.5495
-0.0025755	0.55
0.0020305	0.5505
0.0010435	0.551
-0.013432	0.5515
-0.034486	0.552
-0.050277	0.5525
-0.051593	0.553
-0.057843	0.5535
-0.090411	0.554
-0.10883	0.5545
-0.092056	0.555
-0.066067	0.5555
-0.044026	0.556
-0.032183	0.5565
-0.02034	0.557
-0.0055355	0.5575
-0.00093055	0.558
0.0036755	0.5585
0.013873	0.559
0.022426	0.5595
0.020781	0.56
0.0069655	0.5605
-0.0012595	0.561
0.013215	0.5615
0.028677	0.562
0.026045	0.5625
0.029006	0.563
0.041178	0.5635
0.051047	0.564
0.049073	0.5645
0.031966	0.565
0.012228	0.5655
0.0036755	0.566
0.0010435	0.5665
0.0053205	0.567
0.011241	0.5675
0.010254	0.568
0.0066365	0.5685
0.0053205	0.569
0.016834	0.5695
0.032953	0.57
0.034927	0.5705
0.022756	0.571
0.017163	0.5715
0.019794	0.572
0.025387	0.5725
0.028019	0.573
0.028348	0.5735
0.028019	0.574
0.029335	0.5745
0.036901	0.575
0.044467	0.5755
0.044796	0.576
0.041178	0.5765
0.03723	0.577
0.037888	0.5775
0.039204	0.578
0.039204	0.5785
0.05006	0.579
0.062561	0.5795
0.065193	0.58
0.059271	0.5805
0.054665	0.581
0.057955	0.5815
0.065851	0.582
0.067824	0.5825
0.072101	0.583
0.089208	0.5835
0.11059	0.584
0.1096	0.5845
0.10302	0.585
0.12901	0.5855
0.15796	0.586
0.14744	0.5865
0.10072	0.587
0.055981	0.5875
0.024729	0.588
-0.011787	0.5885
-0.064422	0.589
-0.10883	0.5895
-0.14798	0.59
-0.19173	0.5905
-0.22726	0.591
-0.2447	0.5915
-0.23911	0.592
-0.20687	0.5925
-0.16871	0.593
-0.14732	0.5935
-0.13745	0.594
-0.12495	0.5945
-0.10423	0.595
-0.07495	0.5955
-0.038763	0.596
-0.011458	0.5965
-0.0078385	0.597
-0.014748	0.5975
-0.014419	0.598
-0.011129	0.5985
-0.018037	0.599
-0.031854	0.5995
-0.045013	0.6
-0.050606	0.6005
-0.049948	0.601
-0.045013	0.6015
-0.035473	0.602
-0.033499	0.6025
-0.039421	0.603
-0.043368	0.6035
-0.036131	0.604
-0.025604	0.6045
-0.019024	0.605
-0.0081675	0.6055
0.0049915	0.606
0.017492	0.6065
0.048415	0.607
0.10993	0.6075
0.16685	0.608
0.20928	0.6085
0.22409	0.609
0.23067	0.6095
0.23692	0.61
0.21619	0.6105
0.14941	0.611
0.062561	0.6115
0.0082805	0.612
-0.019682	0.6125
-0.049948	0.613
-0.082187	0.6135
-0.099951	0.614
-0.10521	0.6145
-0.12101	0.615
-0.13416	0.6155
-0.1289	0.616
-0.10982	0.6165
-0.097649	0.617
-0.092714	0.6175
-0.083174	0.618
-0.068699	0.6185
-0.053895	0.619
-0.037776	0.6195
-0.020998	0.62
-0.0035625	0.6205
0.013215	0.621
0.019136	0.6215
0.011241	0.622
-0.0012595	0.6225
0.0046625	0.623
0.011241	0.6235
0.0036755	0.624
-0.0084965	0.6245
-0.012445	0.625
-0.0078385	0.6255
0.0049915	0.626
0.03394	0.6265
0.085918	0.627
0.13395	0.6275
0.14086	0.628
0.13559	0.6285
0.14184	0.629
0.14086	0.6295
0.13428	0.63
0.11947	0.6305
0.089208	0.631
0.05006	0.6315
0.013544	0.632
-0.019353	0.6325
-0.068041	0.633
-0.11673	0.6335
-0.13252	0.634
-0.12035	0.6345
-0.11278	0.635
-0.11048	0.6355
-0.095017	0.636
-0.072318	0.6365
-0.062778	0.637
-0.061462	0.6375
-0.05225	0.638
-0.033828	0.6385
-0.022314	0.639
-0.015406	0.6395
-0.0058645	0.64
0.0092675	0.6405
0.01815	0.641
0.022426	0.6415
0.032624	0.642
0.047099	0.6425
0.067824	0.643
0.079009	0.6435
0.080325	0.644
0.088221	0.6445
0.098419	0.645
0.092826	0.6455
0.090523	0.646
0.11322	0.6465
0.12836	0.647
0.10599	0.6475
0.061903	0.648
0.019794	0.6485
-0.016393	0.649
-0.043697	0.6495
-0.043697	0.65
-0.054553	0.6505
-0.088437	0.651
-0.10127	0.6515
-0.092056	0.652
-0.089424	0.6525
-0.093701	0.653
-0.076265	0.6535
-0.046987	0.654
-0.041394	0.6545
-0.051922	0.655
-0.05225	0.6555
-0.03317	0.656
-0.0068515	0.6565
0.0095965	0.657
0.011899	0.6575
0.019465	0.658
0.035256	0.6585
0.050718	0.659
0.060916	0.6595
0.079996	0.66
0.092826	0.6605
0.090852	0.661
0.083944	0.6615
0.081641	0.662
0.06914	0.6625
0.048086	0.663
0.035585	0.6635
0.036572	0.664
0.016176	0.6645
-0.034486	0.665
-0.069686	0.6655
-0.079226	0.666
-0.08449	0.6665
-0.088437	0.667
-0.091398	0.6675
-0.092056	0.668
-0.086464	0.6685
-0.076594	0.669
-0.069028	0.6695
-0.055869	0.67
-0.043697	0.6705
-0.036789	0.671
-0.031854	0.6715
-0.022972	0.672
-0.015077	0.6725
-0.0081675	0.673
0.0013725	0.6735
0.014202	0.674
0.024729	0.6745
0.029993	0.675
0.043809	0.6755
0.069469	0.676
0.093484	0.6765
0.12211	0.677
0.1448	0.6775
0.15336	0.678
0.16421	0.6785
0.16421	0.679
0.13165	0.6795
0.08197	0.68
0.029006	0.6805
-0.0052065	0.681
-0.027578	0.6815
-0.042381	0.682
-0.055211	0.6825
-0.071989	0.683
-0.084819	0.6835
-0.10094	0.684
-0.10423	0.6845
-0.085477	0.685
-0.069357	0.6855
-0.075608	0.686
-0.083832	0.6865
-0.087779	0.687
-0.090082	0.6875
-0.099294	0.688
-0.11048	0.6885
-0.11278	0.689
-0.10456	0.6895
-0.091069	0.69
-0.075608	0.6905
-0.053895	0.691
-0.043039	0.6915
-0.037118	0.692
-0.02363	0.6925
-0.012445	0.693
-0.0084965	0.6935
-0.0081675	0.694
-0.0094835	0.6945
-0.0055355	0.695
0.010254	0.6955
0.021439	0.696
0.019136	0.6965
0.015847	0.697
0.061245	0.6975
0.1254	0.698
0.14546	0.6985
0.13263	0.699
0.11914	0.6995
0.11322	0.7
0.10763	0.7005
0.08855	0.701
0.030651	0.7015
-0.035802	0.702
-0.047645	0.7025
5.65E-05	0.703
0.052692	0.7035
0.062232	0.704
0.05335	0.7045
0.062232	0.705
0.082628	0.7055
0.086247	0.706
0.085918	0.7065
0.10302	0.707
0.1175	0.7075
0.082628	0.708
0.0086095	0.7085
-0.045013	0.709
-0.082516	0.7095
-0.1141	0.71
-0.12758	0.7105
-0.12133	0.711
-0.12068	0.7115
-0.12528	0.712
-0.11245	0.7125
-0.089095	0.713
-0.069028	0.7135
-0.051264	0.714
-0.027578	0.7145
-0.0081675	0.715
0.0053205	0.7155
0.013873	0.716
0.018808	0.7165
0.01157	0.717
-0.011129	0.7175
-0.024288	0.718
-0.011458	0.7185
0.0059785	0.719
0.00071445	0.7195
-0.0075095	0.72
0.00071445	0.7205
0.0099255	0.721
0.021768	0.7215
0.038546	0.722
0.046112	0.7225
0.022426	0.723
-0.01705	0.7235
-0.027578	0.724
-0.0091545	0.7245
0.0020305	0.725
-0.0088255	0.7255
-0.018366	0.726
-0.02363	0.7265
-0.031854	0.727
-0.039092	0.7275
-0.03646	0.728
-0.029551	0.7285
-0.021985	0.729
-0.013761	0.7295
-0.0019175	0.73
0.0079515	0.7305
0.021768	0.731
0.030322	0.7315
0.029335	0.732
0.028019	0.7325
0.033282	0.733
0.041836	0.7335
0.051705	0.734
0.092497	0.7345
0.16849	0.735
0.24711	0.7355
0.27541	0.736
0.24909	0.7365
0.22672	0.737
0.23955	0.7375
0.26323	0.738
0.26291	0.7385
0.21652	0.739
0.12638	0.7395
0.03723	0.74
-0.04929	0.7405
-0.14699	0.741
-0.21608	0.7415
-0.2424	0.742
-0.26411	0.7425
-0.29602	0.743
-0.29997	0.7435
-0.2845	0.744
-0.27628	0.7445
-0.26115	0.745
-0.21838	0.7455
-0.16114	0.746
-0.1266	0.7465
-0.10982	0.747
-0.09732	0.7475
-0.088437	0.748
-0.079555	0.7485
-0.071002	0.749
-0.060804	0.7495
-0.047316	0.75
-0.034486	0.7505
-0.023959	0.751
-0.011458	0.7515
-0.0048775	0.752
-0.0029045	0.7525
0.0086095	0.753
0.067495	0.7535
0.16356	0.754
0.20599	0.7545
0.18823	0.755
0.16619	0.7555
0.16948	0.756
0.16586	0.7565
0.13559	0.757
0.081312	0.7575
0.013544	0.758
-0.02692	0.7585
-0.032512	0.759
-0.027249	0.7595
-0.035802	0.76
-0.064751	0.7605
-0.089753	0.761
-0.086135	0.7615
-0.072976	0.762
-0.065738	0.7625
-0.05225	0.763
-0.030538	0.7635
-0.0078385	0.764
0.0030175	0.7645
0.0066365	0.765
0.0099255	0.7655
0.012228	0.766
0.0072935	0.7665
0.0089385	0.767
0.013215	0.7675
0.0079515	0.768
5.65E-05	0.7685
0.0013725	0.769
0.0089385	0.7695
0.013873	0.77
0.012228	0.7705
0.012886	0.771
0.029664	0.7715
0.054665	0.772
0.071772	0.7725
0.070785	0.773
0.069469	0.7735
0.076049	0.774
0.077365	0.7745
0.065522	0.775
0.05631	0.7755
0.062232	0.776
0.062232	0.7765
0.045783	0.777
0.039533	0.7775
0.039533	0.778
0.028677	0.7785
0.0036755	0.779
-0.029222	0.7795
-0.052908	0.78
-0.061133	0.7805
-0.055869	0.781
-0.05225	0.7815
-0.056856	0.782
-0.064093	0.7825
-0.06837	0.783
-0.070344	0.7835
-0.068699	0.784
-0.066067	0.7845
-0.059488	0.785
-0.05225	0.7855
-0.043697	0.786
-0.031854	0.7865
-0.015735	0.787
-0.0055355	0.7875
-0.0045495	0.788
-0.0055355	0.7885
0.00071445	0.789
0.0069655	0.7895
0.0040045	0.79
-0.0038915	0.7905
-0.0084965	0.791
-0.0032335	0.7915
0.013873	0.792
0.038875	0.7925
0.057626	0.793
0.1073	0.7935
0.20698	0.794
0.28626	0.7945
0.29547	0.795
0.26817	0.7955
0.26389	0.796
0.27837	0.7965
0.25698	0.797
0.2004	0.7975
0.15698	0.798
0.1027	0.7985
0.013873	0.799
-0.09403	0.7995
-0.17463	0.8
-0.23154	0.8005
-0.28582	0.801
-0.32398	0.8015
-0.32628	0.802
-0.3003	0.8025
-0.26444	0.803
-0.22924	0.8035
-0.19272	0.804
-0.16147	0.8045
-0.14535	0.805
-0.13712	0.8055
-0.12331	0.806
-0.10587	0.8065
-0.088766	0.807
-0.070344	0.8075
-0.050277	0.808
-0.037776	0.8085
-0.029551	0.809
-0.011458	0.8095
0.0043335	0.81
0.0013725	0.8105
-0.0029045	0.811
0.010912	0.8115
0.036572	0.812
0.066837	0.8125
0.09809	0.813
0.13099	0.8135
0.14809	0.814
0.15171	0.8145
0.15171	0.815
0.14744	0.8155
0.13855	0.816
0.12901	0.8165
0.10796	0.817
0.054665	0.8175
-0.02034	0.818
-0.082845	0.8185
-0.12594	0.819
-0.13647	0.8195
-0.11443	0.82
-0.094688	0.8205
-0.089095	0.821
-0.077581	0.8215
-0.050606	0.822
-0.02692	0.8225
-0.012774	0.823
-0.0048775	0.8235
-0.00027255	0.824
0.0026885	0.8245
0.0079515	0.825
0.012228	0.8255
0.015189	0.826
0.017821	0.8265
0.01815	0.827
0.013544	0.8275
0.0082805	0.828
0.0092675	0.8285
0.016505	0.829
0.024071	0.8295
0.0244	0.83
0.016176	0.8305
0.017492	0.831
0.031637	0.8315
0.052363	0.832
0.075391	0.8325
0.12342	0.833
0.15632	0.8335
0.13855	0.834
0.11388	0.8345
0.11059	0.835
0.105	0.8355
0.07868	0.836
0.048415	0.8365
0.0056495	0.837
-0.041065	0.8375
-0.057843	0.838
-0.041394	0.8385
-0.021656	0.839
-0.036131	0.8395
-0.080871	0.84
-0.10357	0.8405
-0.078897	0.841
-0.042381	0.8415
-0.02988	0.842
-0.032512	0.8425
-0.030538	0.843
-0.021656	0.8435
-0.0084965	0.844
-0.0048775	0.8445
-0.0094835	0.845
-0.0094835	0.8455
-0.014748	0.846
-0.016393	0.8465
-0.0015885	0.847
0.014202	0.8475
0.015189	0.848
0.010254	0.8485
0.0036755	0.849
5.65E-05	0.8495
-0.00060155	0.85
-0.0048775	0.8505
-0.0048775	0.851
0.0030175	0.8515
0.011899	0.852
0.017492	0.8525
0.015847	0.853
0.01486	0.8535
0.024729	0.854
0.039862	0.8545
0.045125	0.855
0.045125	0.8555
0.036243	0.856
0.02111	0.8565
0.0056495	0.857
-0.00093055	0.8575
0.00038545	0.858
-0.0068515	0.8585
-0.02034	0.859
-0.022972	0.8595
-0.01705	0.86
-0.027907	0.8605
-0.051922	0.861
-0.053895	0.8615
-0.024288	0.862
0.00038545	0.8625
0.010912	0.863
0.024729	0.8635
0.03394	0.864
0.031637	0.8645
0.029006	0.865
0.035914	0.8655
0.040849	0.866
0.028348	0.8665
0.0026885	0.867
-0.0071805	0.8675
0.016834	0.868
0.0596	0.8685
0.078351	0.869
0.063548	0.8695
0.044796	0.87
0.041178	0.8705
0.041507	0.871
0.039862	0.8715
0.050718	0.872
0.047757	0.8725
0.0089385	0.873
-0.051264	0.8735
-0.11015	0.874
-0.14074	0.8745
-0.1368	0.875
-0.11772	0.8755
-0.10587	0.876
-0.10489	0.8765
-0.11179	0.877
-0.10883	0.8775
-0.092714	0.878
-0.079884	0.8785
-0.069357	0.879
-0.056198	0.8795
-0.032841	0.88
-0.0071805	0.8805
0.00038545	0.881
-0.011787	0.8815
-0.015735	0.882
-0.0094835	0.8825
-0.0029045	0.883
0.0010435	0.8835
0.011241	0.884
0.032295	0.8845
0.050389	0.885
0.04677	0.8855
0.031637	0.886
0.025058	0.8865
0.026045	0.887
0.025387	0.8875
0.019794	0.888
0.0095965	0.8885
-0.0045495	0.889
-0.016064	0.8895
-0.018695	0.89
-0.015735	0.8905
-0.0045495	0.891
0.011241	0.8915
0.036243	0.892
0.073417	0.8925
0.11224	0.893
0.13362	0.8935
0.14053	0.894
0.14184	0.8945
0.14217	0.895
0.15402	0.8955
0.16717	0.896
0.15138	0.8965
0.10237	0.897
0.036901	0.8975
-0.025604	0.898
-0.063107	0.8985
-0.083174	0.899
-0.10982	0.8995
-0.12232	0.9
-0.10127	0.9005
-0.081858	0.901
-0.089424	0.9015
-0.098965	0.902
-0.083503	0.9025
-0.063107	0.903
-0.05225	0.9035
-0.049619	0.904
-0.041723	0.9045
-0.031854	0.905
-0.026262	0.9055
-0.02692	0.906
-0.028564	0.9065
-0.027907	0.907
-0.032183	0.9075
-0.035473	0.908
-0.034486	0.9085
-0.027249	0.909
-0.018695	0.9095
-0.013761	0.91
-0.011787	0.9105
-0.0055355	0.911
0.0013725	0.9115
0.012886	0.912
0.021439	0.9125
0.029664	0.913
0.057955	0.9135
0.11882	0.914
0.14119	0.9145
0.10664	0.915
0.075391	0.9155
0.080325	0.916
0.087892	0.9165
0.088221	0.917
0.11618	0.9175
0.15698	0.918
0.13822	0.9185
0.082299	0.919
0.069798	0.9195
0.089866	0.92
0.077694	0.9205
0.015518	0.921
-0.051264	0.9215
-0.088437	0.922
-0.10324	0.9225
-0.12331	0.923
-0.14206	0.9235
-0.14041	0.924
-0.1266	0.9245
-0.11837	0.925
-0.12528	0.9255
-0.13219	0.926
-0.13022	0.9265
-0.11377	0.927
-0.081858	0.9275
-0.051922	0.928
-0.024617	0.9285
0.0020305	0.929
0.018808	0.9295
0.040849	0.93
0.07572	0.9305
0.11257	0.931
0.13559	0.9315
0.13197	0.932
0.11191	0.9325
0.097432	0.933
0.084931	0.9335
0.045454	0.934
-0.00093055	0.9345
-0.02692	0.935
-0.041394	0.9355
-0.060804	0.936
-0.078239	0.9365
-0.092385	0.937
-0.11706	0.9375
-0.1414	0.938
-0.14338	0.9385
-0.12298	0.939
-0.10653	0.9395
-0.11114	0.94
-0.11607	0.9405
-0.10489	0.941
-0.087779	0.9415
-0.078239	0.942
-0.073634	0.9425
-0.064422	0.943
-0.044026	0.9435
-0.022643	0.944
-0.0081675	0.9445
0.0036755	0.945
0.015847	0.9455
0.02111	0.946
0.029993	0.9465
0.051047	0.947
0.06618	0.9475
0.059929	0.948
0.051705	0.9485
0.055323	0.949
0.050718	0.9495
0.036572	0.95
0.026374	0.9505
0.030322	0.951
0.037888	0.9515
0.036901	0.952
0.029664	0.9525
0.027032	0.953
0.023084	0.9535
0.016176	0.954
0.020123	0.9545
0.025387	0.955
0.021768	0.9555
0.018808	0.956
0.025387	0.9565
0.034269	0.957
0.032295	0.9575
0.021439	0.958
0.017163	0.9585
0.017163	0.959
0.01815	0.9595
0.019465	0.96
0.024729	0.9605
0.038875	0.961
0.047099	0.9615
0.044138	0.962
0.035585	0.9625
0.027361	0.963
0.024071	0.9635
0.026703	0.964
0.025058	0.9645
0.015847	0.965
0.0043335	0.9655
0.0069655	0.966
0.022426	0.9665
0.027032	0.967
0.013544	0.9675
-0.00027255	0.968
-0.00093055	0.9685
0.0036755	0.969
0.0020305	0.9695
-0.011787	0.97
-0.031196	0.9705
-0.039092	0.971
-0.035473	0.9715
-0.02692	0.972
-0.01409	0.9725
-0.0081675	0.973
-0.0055355	0.9735
0.0026885	0.974
0.016505	0.9745
0.0244	0.975
0.031637	0.9755
0.042494	0.976
0.041836	0.9765
0.03394	0.977
0.041507	0.9775
0.065522	0.978
0.11355	0.9785
0.15731	0.979
0.19152	0.9795
0.2458	0.98
0.27475	0.9805
0.23922	0.981
0.16323	0.9815
0.08855	0.982
0.036901	0.9825
-0.022972	0.983
-0.10982	0.9835
-0.19733	0.984
-0.25161	0.9845
-0.272	0.985
-0.27398	0.9855
-0.27003	0.986
-0.25292	0.9865
-0.22068	0.987
-0.18121	0.9875
-0.13844	0.988
-0.098307	0.9885
-0.067383	0.989
-0.050277	0.9895
-0.047974	0.99
-0.044026	0.9905
-0.031525	0.991
-0.031196	0.9915
-0.030538	0.992
-0.019024	0.9925
-0.0091545	0.993
5.65E-05	0.9935
0.0040045	0.994
0.0066365	0.9945
0.031308	0.995
0.068153	0.9955
0.087563	0.996
0.096774	0.9965
0.1175	0.997
0.14086	0.9975
0.15073	0.998
0.14316	0.9985
0.14086	0.999
0.14283	0.9995
0.1175	1
0.07572	1.0005
0.039204	1.001
0.017492	1.0015
0.0036755	1.002
-0.028564	1.0025
-0.070015	1.003
-0.1062	1.0035
-0.12758	1.004
-0.13022	1.0045
-0.12364	1.005
-0.12035	1.0055
-0.11344	1.006
-0.099622	1.0065
-0.077581	1.007
-0.050935	1.0075
-0.02988	1.008
-0.017379	1.0085
-0.017379	1.009
-0.020998	1.0095
-0.013432	1.01
-0.00093055	1.0105
0.0056495	1.011
0.0036755	1.0115
-0.011458	1.012
-0.025275	1.0125
-0.02363	1.013
-0.02363	1.0135
-0.028893	1.014
-0.027249	1.0145
-0.018695	1.015
-0.0068515	1.0155
0.0049915	1.016
0.010583	1.0165
0.012557	1.017
0.014202	1.0175
0.015189	1.018
0.014531	1.0185
0.014202	1.019
0.020452	1.0195
0.024071	1.02
0.024071	1.0205
0.029993	1.021
0.037888	1.0215
0.042494	1.022
0.043151	1.0225
0.041178	1.023
0.04052	1.0235
0.039533	1.024
0.04052	1.0245
0.044467	1.025
0.053021	1.0255
0.070785	1.026
0.085918	1.0265
0.08855	1.027
0.094142	1.0275
0.1073	1.028
0.10204	1.0285
0.084602	1.029
0.070456	1.0295
0.057955	1.03
0.036901	1.0305
0.0066365	1.031
-0.025275	1.0315
-0.047316	1.032
-0.066396	1.0325
-0.078239	1.033
-0.078239	1.0335
-0.078568	1.034
-0.073963	1.0345
-0.063107	1.035
-0.054882	1.0355
-0.050935	1.036
-0.044684	1.0365
-0.03646	1.037
-0.026591	1.0375
-0.014419	1.038
0.0036755	1.0385
0.018808	1.039
0.032953	1.0395
0.039862	1.04
0.034269	1.0405
0.023413	1.041
0.023084	1.0415
0.026703	1.042
0.019794	1.0425
0.0013725	1.043
-0.011458	1.0435
-0.0078385	1.044
0.0020305	1.0445
0.0040045	1.045
-0.0035625	1.0455
-0.0075095	1.046
-0.0055355	1.0465
-0.0068515	1.047
-0.0065225	1.0475
-0.0022465	1.048
0.0020305	1.0485
0.0033465	1.049
0.0030175	1.0495
0.032953	1.05
0.10434	1.0505
0.14908	1.051
0.15665	1.0515
0.15632	1.052
0.1379	1.0525
0.10895	1.053
0.080654	1.0535
0.038875	1.054
-0.017379	1.0545
-0.053237	1.055
-0.067054	1.0555
-0.083832	1.056
-0.1016	1.0565
-0.11739	1.057
-0.13647	1.0575
-0.13976	1.058
-0.12002	1.0585
-0.099294	1.059
-0.092385	1.0595
-0.091398	1.06
-0.084161	1.0605
-0.071002	1.061
-0.061133	1.0615
-0.054224	1.062
-0.03975	1.0625
-0.01409	1.063
0.0040045	1.0635
5.65E-05	1.064
-0.0078385	1.0645
-0.0084965	1.065
-0.0048775	1.0655
0.0079515	1.066
0.026374	1.0665
0.03394	1.067
0.028348	1.0675
0.022097	1.068
0.016505	1.0685
0.017821	1.069
0.018808	1.0695
0.015847	1.07
0.015189	1.0705
0.0059785	1.071
-0.0091545	1.0715
-0.015406	1.072
-0.01705	1.0725
-0.019024	1.073
-0.0075095	1.0735
-0.0012595	1.074
-0.018366	1.0745
-0.027907	1.075
-0.0019175	1.0755
0.049731	1.076
0.077036	1.0765
0.070456	1.077
0.05631	1.0775
0.049073	1.078
0.046441	1.0785
0.045454	1.079
0.053679	1.0795
0.047757	1.08
0.013544	1.0805
-0.019353	1.081
-0.025933	1.0815
-0.013103	1.082
0.0036755	1.0825
0.0046625	1.083
-0.0081675	1.0835
-0.020998	1.084
-0.02988	1.0845
-0.040079	1.085
-0.045671	1.0855
-0.036131	1.086
-0.011129	1.0865
0.0092675	1.087
0.0056495	1.0875
-0.0068515	1.088
-0.010471	1.0885
-0.0081675	1.089
-0.010471	1.0895
-0.015077	1.09
-0.01409	1.0905
-0.00027255	1.091
0.014202	1.0915
0.012886	1.092
0.0066365	1.0925
0.0079515	1.093
0.019794	1.0935
0.033282	1.094
0.038546	1.0945
0.036243	1.095
0.03723	1.0955
0.029993	1.096
0.0076225	1.0965
-0.0081675	1.097
-0.012116	1.0975
-0.015077	1.098
-0.012774	1.0985
0.0036755	1.099
0.016176	1.0995
0.022097	1.1
0.024729	1.1005
0.025716	1.101
0.03394	1.1015
0.049073	1.102
0.070785	1.1025
0.099077	1.103
0.10928	1.1035
0.090852	1.104
0.069798	1.1045
0.053679	1.105
0.031308	1.1055
-0.0048775	1.106
-0.020011	1.1065
-0.0078385	1.107
-0.016721	1.1075
-0.056198	1.108
-0.07791	1.1085
-0.067054	1.109
-0.050277	1.1095
-0.038763	1.11
-0.035473	1.1105
-0.039421	1.111
-0.02692	1.1115
0.0030175	1.112
0.015518	1.1125
-0.00027255	1.113
-0.01409	1.1135
-0.016393	1.114
-0.027578	1.1145
-0.05225	1.115
-0.061133	1.1155
-0.048303	1.116
-0.053566	1.1165
-0.075608	1.117
-0.079884	1.1175
-0.054224	1.118
-0.025933	1.1185
-0.011787	1.119
-0.0042205	1.1195
-0.00060155	1.12
-0.0058645	1.1205
-0.012445	1.121
-0.015077	1.1215
-0.0108	1.122
0.015847	1.1225
0.042494	1.123
0.032624	1.1235
0.00071445	1.124
-0.018366	1.1245
-0.027249	1.125
-0.035144	1.1255
-0.043368	1.126
-0.046329	1.1265
-0.046658	1.127
-0.047974	1.1275
-0.04271	1.128
-0.035144	1.1285
-0.031854	1.129
-0.033499	1.1295
-0.031196	1.13
-0.023301	1.1305
-0.010142	1.131
0.00038545	1.1315
-0.0019175	1.132
-0.0088255	1.1325
-0.0015885	1.133
0.015847	1.1335
0.019136	1.134
0.01486	1.1345
0.018808	1.135
0.026374	1.1355
0.030979	1.136
0.029993	1.1365
0.025716	1.137
0.034269	1.1375
0.076707	1.138
0.13263	1.1385
0.14513	1.139
0.13132	1.1395
0.13165	1.14
0.13921	1.1405
0.13296	1.141
0.12145	1.1415
0.087234	1.142
0.024071	1.1425
-0.016721	1.143
-0.019682	1.1435
-0.013432	1.144
-0.028236	1.1445
-0.061133	1.145
-0.087451	1.1455
-0.098307	1.146
-0.097649	1.1465
-0.093701	1.147
-0.090411	1.1475
-0.086135	1.148
-0.07791	1.1485
-0.060146	1.149
-0.031854	1.1495
-0.01409	1.15
-0.013432	1.1505
-0.015406	1.151
-0.0022465	1.1515
0.01157	1.152
0.0059785	1.1525
-0.0015885	1.153
0.0033465	1.1535
0.0033465	1.154
-0.0035625	1.1545
-0.0055355	1.155
0.0030175	1.1555
0.011899	1.156
0.017492	1.1565
0.014531	1.157
0.012228	1.1575
0.023742	1.158
0.033282	1.1585
0.025387	1.159
0.0082805	1.1595
-0.0052065	1.16
-0.00027255	1.1605
0.019794	1.161
0.041178	1.1615
0.074733	1.162
0.105	1.1625
0.11618	1.163
0.11651	1.1635
0.12507	1.164
0.13197	1.1645
0.12638	1.165
0.10631	1.1655
0.0596	1.166
0.0099255	1.1665
-0.040079	1.167
-0.092385	1.1675
-0.13548	1.168
-0.16048	1.1685
-0.1539	1.169
-0.13943	1.1695
-0.13647	1.17
-0.12989	1.1705
-0.11081	1.171
-0.087122	1.1715
-0.076923	1.172
-0.076594	1.1725
-0.06837	1.173
-0.050277	1.1735
-0.03317	1.174
-0.023959	1.1745
-0.02034	1.175
-0.012445	1.1755
-0.00060155	1.176
0.0059785	1.1765
0.0066365	1.177
0.00071445	1.1775
-0.0081675	1.178
-0.010471	1.1785
-0.0045495	1.179
0.0059785	1.1795
0.018479	1.18
0.026374	1.1805
0.03723	1.181
0.074075	1.1815
0.13033	1.182
0.17211	1.1825
0.18165	1.183
0.16948	1.1835
0.15402	1.184
0.12836	1.1845
0.090523	1.185
0.048744	1.1855
0.011899	1.186
-0.011787	1.1865
-0.040079	1.187
-0.081529	1.1875
-0.10949	1.188
-0.11245	1.1885
-0.11179	1.189
-0.10653	1.1895
-0.089095	1.19
-0.072318	1.1905
-0.066725	1.191
-0.072976	1.1915
-0.075936	1.192
-0.071989	1.1925
-0.056856	1.193
-0.032841	1.1935
0.010912	1.194
0.052692	1.1945
0.057955	1.195
0.058942	1.1955
0.074075	1.196
0.090194	1.1965
0.093813	1.197
0.078351	1.1975
0.052363	1.198
0.026045	1.1985
-0.0029045	1.199
-0.031525	1.1995
-0.054224	1.2
-0.074292	1.2005
-0.084819	1.201
-0.07791	1.2015
-0.067712	1.202
-0.067383	1.2025
-0.063436	1.203
-0.047316	1.2035
-0.030209	1.204
-0.013103	1.2045
0.028019	1.205
0.1027	1.2055
0.13987	1.206
0.12276	1.2065
0.095787	1.207
0.084273	1.2075
0.079667	1.208
0.070456	1.2085
0.04677	1.209
-0.011458	1.2095
-0.073634	1.21
-0.095675	1.2105
-0.071331	1.211
-0.032512	1.2115
-0.011458	1.212
-0.015077	1.2125
-0.025275	1.213
-0.032512	1.2135
-0.031196	1.214
-0.020998	1.2145
-0.015077	1.215
-0.016064	1.2155
-0.024946	1.216
-0.038434	1.2165
-0.046	1.217
-0.040736	1.2175
-0.039092	1.218
-0.044026	1.2185
-0.035473	1.219
-0.011129	1.2195
0.0020305	1.22
-0.00093055	1.2205
0.0040045	1.221
0.022097	1.2215
0.039862	1.222
0.051047	1.2225
0.053679	1.223
0.057297	1.2235
0.057955	1.224
0.05006	1.2245
0.031637	1.225
0.031637	1.2255
0.035256	1.226
0.019465	1.2265
0.0040045	1.227
0.0030175	1.2275
-0.00027255	1.228
-0.020011	1.2285
-0.039421	1.229
-0.047974	1.2295
-0.050935	1.23
-0.055211	1.2305
-0.061133	1.231
-0.067712	1.2315
-0.062778	1.232
-0.040736	1.2325
-0.022314	1.233
-0.019353	1.2335
-0.023301	1.234
-0.019024	1.2345
-0.019682	1.235
-0.01705	1.2355
-0.0019175	1.236
0.013215	1.2365
0.02111	1.237
0.0244	1.2375
0.031308	1.238
0.043809	1.2385
0.059271	1.239
0.079667	1.2395
0.092497	1.24
0.086247	1.2405
0.084602	1.241
0.092497	1.2415
0.081312	1.242
0.043151	1.2425
0.010254	1.243
0.0020305	1.2435
-0.0032335	1.244
-0.021985	1.2445
-0.041065	1.245
-0.050277	1.2455
-0.051264	1.246
-0.044026	1.2465
-0.028893	1.247
-0.013761	1.2475
-0.0052065	1.248
-0.0055355	1.2485
-0.0052065	1.249
-0.0035625	1.2495
-0.0058645	1.25
-0.014748	1.2505
-0.027907	1.251
-0.027907	1.2515
-0.023301	1.252
-0.022643	1.2525
-0.022643	1.253
-0.020011	1.2535
-0.011458	1.254
0.0010435	1.2545
0.0059785	1.255
0.0089385	1.2555
0.019465	1.256
0.034269	1.2565
0.04348	1.257
0.054337	1.2575
0.068482	1.258
0.0948	1.2585
0.13592	1.259
0.18264	1.2595
0.21257	1.26
0.19974	1.2605
0.15928	1.261
0.12211	1.2615
0.087563	1.262
0.048744	1.2625
0.010583	1.263
-0.02692	1.2635
-0.061133	1.264
-0.10686	1.2645
-0.15686	1.265
-0.1845	1.2655
-0.17101	1.266
-0.14995	1.2665
-0.14667	1.267
-0.1437	1.2675
-0.12364	1.268
-0.095346	1.2685
-0.075279	1.269
-0.064422	1.2695
-0.054224	1.27
-0.03975	1.2705
-0.029551	1.271
-0.032183	1.2715
-0.032841	1.272
-0.025275	1.2725
-0.018695	1.273
-0.020011	1.2735
-0.021985	1.274
-0.018366	1.2745
-0.014419	1.275
-0.018037	1.2755
-0.018695	1.276
-0.015077	1.2765
-0.011129	1.277
-0.0088255	1.2775
-0.0081675	1.278
-0.0055355	1.2785
0.0053205	1.279
0.01815	1.2795
0.031308	1.28
0.038546	1.2805
0.046441	1.281
0.066508	1.2815
0.080325	1.282
0.080325	1.2825
0.06914	1.283
0.051376	1.2835
0.037888	1.284
0.036243	1.2845
0.038546	1.285
0.026045	1.2855
0.0076225	1.286
-0.0019175	1.2865
-0.0032335	1.287
-0.0048775	1.2875
-0.0088255	1.288
-0.011129	1.2885
-0.014748	1.289
-0.018037	1.2895
-0.016064	1.29
-0.0075095	1.2905
0.0079515	1.291
0.022426	1.2915
0.026374	1.292
0.023084	1.2925
0.015518	1.293
0.0076225	1.2935
0.0063075	1.294
0.010254	1.2945
0.010254	1.295
0.012557	1.2955
0.020781	1.296
0.028677	1.2965
0.030979	1.297
0.02769	1.2975
0.015189	1.298
0.00071445	1.2985
-0.00093055	1.299
-0.0048775	1.2995
-0.0088255	1.3
-0.0081675	1.3005
-0.016064	1.301
-0.032512	1.3015
-0.041723	1.302
-0.034815	1.3025
-0.026262	1.303
-0.024288	1.3035
-0.018366	1.304
-0.0058645	1.3045
0.0066365	1.305
0.01157	1.3055
0.0095965	1.306
0.0082805	1.3065
0.0082805	1.307
0.0056495	1.3075
0.0020305	1.308
0.0010435	1.3085
-0.00060155	1.309
-0.0075095	1.3095
-0.012774	1.31
-0.0075095	1.3105
0.0020305	1.311
0.0036755	1.3115
-0.0045495	1.312
-0.0078385	1.3125
-0.0045495	1.313
-0.0084965	1.3135
-0.010142	1.314
-0.0022465	1.3145
0.0053205	1.315
0.014202	1.3155
0.022097	1.316
0.019465	1.3165
0.011899	1.317
0.0043335	1.3175
-0.00060155	1.318
-0.0022465	1.3185
-0.0042205	1.319
-0.0045495	1.3195
-0.0048775	1.32
-0.0032335	1.3205
0.0010435	1.321
0.0030175	1.3215
0.00071445	1.322
-0.0048775	1.3225
-0.0071805	1.323
-0.0042205	1.3235
5.65E-05	1.324
0.0056495	1.3245
0.010254	1.325
0.011899	1.3255
0.01486	1.326
0.018808	1.3265
0.016505	1.327
0.0095965	1.3275
0.0076225	1.328
0.0020305	1.3285
-0.012116	1.329
-0.022643	1.3295
-0.020998	1.33
-0.016721	1.3305
-0.018037	1.331
-0.016393	1.3315
-0.0068515	1.332
-0.00027255	1.3325
-0.0091545	1.333
-0.01409	1.3335
-0.0045495	1.334
0.0046625	1.3345
0.011241	1.335
0.019794	1.3355
0.029664	1.336
0.032295	1.3365
0.029664	1.337
0.023742	1.3375
0.012557	1.338
0.0026885	1.3385
-0.010471	1.339
-0.027578	1.3395
-0.033499	1.34
-0.032841	1.3405
-0.034815	1.341
-0.031854	1.3415
-0.024946	1.342
-0.019024	1.3425
-0.012116	1.343
-0.0071805	1.3435
-0.012445	1.344
-0.014419	1.3445
-0.0058645	1.345
-0.0022465	1.3455
-0.0091545	1.346
-0.01409	1.3465
-0.015406	1.347
-0.013761	1.3475
-0.0081675	1.348
0.00071445	1.3485
5.65E-05	1.349
-0.0022465	1.3495
-0.00027255	1.35
0.0017015	1.3505
0.0013725	1.351
-0.0012595	1.3515
-0.0032335	1.352
-0.00060155	1.3525
0.0059785	1.353
0.0099255	1.3535
0.015189	1.354
0.034598	1.3545
0.055652	1.355
0.062232	1.3555
0.056639	1.356
0.045783	1.3565
0.03723	1.357
0.032624	1.3575
0.029335	1.358
0.024729	1.3585
0.011899	1.359
-0.011129	1.3595
-0.02692	1.36
-0.028564	1.3605
-0.027249	1.361
-0.020998	1.3615
-0.015735	1.362
-0.023959	1.3625
-0.034157	1.363
-0.036789	1.3635
-0.041394	1.364
-0.041065	1.3645
-0.028893	1.365
-0.017708	1.3655
-0.0065225	1.366
0.012557	1.3665
0.04348	1.367
0.063548	1.3675
0.064864	1.368
0.052692	1.3685
0.042165	1.369
0.054337	1.3695
0.076049	1.37
0.077365	1.3705
0.060916	1.371
0.047099	1.3715
0.02769	1.372
-0.0078385	1.3725
-0.027907	1.373
-0.014419	1.3735
-0.00060155	1.374
-0.016064	1.3745
-0.035144	1.375
-0.043039	1.3755
-0.064093	1.376
-0.097649	1.3765
-0.12068	1.377
-0.12166	1.3775
-0.091398	1.378
-0.020011	1.3785
0.052692	1.379
0.063219	1.3795
0.026045	1.38
0.019465	1.3805
0.054994	1.381
0.076378	1.3815
0.069798	1.382
0.059271	1.3825
0.023084	1.383
-0.027249	1.3835
-0.046987	1.384
-0.034486	1.3845
-0.022314	1.385
-0.015077	1.3855
-0.0088255	1.386
0.00071445	1.3865
0.022097	1.387
0.045783	1.3875
0.060916	1.388
0.061574	1.3885
0.047099	1.389
0.032295	1.3895
0.015847	1.39
-0.012116	1.3905
-0.037776	1.391
-0.055211	1.3915
-0.078568	1.392
-0.11146	1.3925
-0.1289	1.393
-0.12726	1.3935
-0.12199	1.394
-0.12035	1.3945
-0.11278	1.395
-0.096004	1.3955
-0.073963	1.396
-0.054224	1.3965
-0.039421	1.397
-0.029551	1.3975
-0.020669	1.398
-0.015735	1.3985
-0.0098125	1.399
0.00038545	1.3995
0.0086095	1.4
0.017163	1.4005
0.03394	1.401
0.054337	1.4015
0.069469	1.402
0.10467	1.4025
0.18461	1.403
0.25534	1.4035
0.27245	1.404
0.26652	1.4045
0.28988	1.405
0.34219	1.4055
0.37344	1.406
0.34285	1.4065
0.25797	1.407
0.1606	1.4075
0.07572	1.408
-0.00093055	1.4085
-0.082845	1.409
-0.17068	1.4095
-0.24865	1.41
-0.29931	1.4105
-0.31806	1.411
-0.32135	1.4115
-0.31905	1.412
-0.3151	1.4125
-0.2924	1.413
-0.24536	1.4135
-0.20127	1.414
-0.16838	1.4145
-0.13844	1.415
-0.11212	1.4155
-0.09732	1.416
-0.087122	1.4165
-0.072647	1.417
-0.053895	1.4175
-0.040407	1.418
-0.028564	1.4185
-0.015406	1.419
-0.0048775	1.4195
0.0043335	1.42
0.013215	1.4205
0.019465	1.421
0.023084	1.4215
0.028019	1.422
0.033282	1.4225
0.035256	1.423
0.038217	1.4235
0.045454	1.424
0.052363	1.4245
0.06289	1.425
0.071772	1.4255
0.072101	1.426
0.067495	1.4265
0.06289	1.427
0.052363	1.4275
0.039533	1.428
0.029335	1.4285
0.030322	1.429
0.036243	1.4295
0.038217	1.43
0.040191	1.4305
0.039204	1.431
0.039862	1.4315
0.040849	1.432
0.040191	1.4325
0.041178	1.433
0.041507	1.4335
0.035256	1.434
0.027361	1.4345
0.029664	1.435
0.041507	1.4355
0.089866	1.436
0.14777	1.4365
0.15763	1.437
0.14119	1.4375
0.14974	1.438
0.17671	1.4385
0.18625	1.439
0.18593	1.4395
0.16257	1.44
0.11059	1.4405
0.067166	1.441
0.042494	1.4415
0.016176	1.442
-0.036131	1.4425
-0.10324	1.443
-0.15357	1.4435
-0.17298	1.444
-0.1766	1.4445
-0.18022	1.445
-0.18252	1.4455
-0.17792	1.446
-0.16871	1.4465
-0.15555	1.447
-0.14239	1.4475
-0.12791	1.448
-0.10554	1.4485
-0.088437	1.449
-0.077581	1.4495
-0.066067	1.45
-0.05554	1.4505
-0.051593	1.451
-0.044026	1.4515
-0.031854	1.452
-0.025275	1.4525
-0.02034	1.453
-0.015735	1.4535
-0.0068515	1.454
0.0033465	1.4545
0.01157	1.455
0.022426	1.4555
0.045783	1.456
0.10829	1.4565
0.20073	1.457
0.28396	1.4575
0.34021	1.458
0.34252	1.4585
0.31291	1.459
0.29909	1.4595
0.30501	1.46
0.31883	1.4605
0.29317	1.461
0.2004	1.4615
0.083286	1.462
-0.01705	1.4625
-0.099622	1.463
-0.16772	1.4635
-0.22035	1.464
-0.2493	1.4645
-0.25095	1.465
-0.25786	1.4655
-0.27661	1.466
-0.28714	1.4665
-0.28023	1.467
-0.27431	1.4675
-0.27299	1.468
-0.25391	1.4685
-0.21805	1.469
-0.18318	1.4695
-0.15522	1.47
-0.13252	1.4705
-0.1141	1.471
-0.096991	1.4715
-0.080871	1.472
-0.074621	1.4725
-0.065409	1.473
-0.044355	1.4735
-0.021327	1.474
-0.0081675	1.4745
-0.0045495	1.475
0.0043335	1.4755
0.027361	1.476
0.05006	1.4765
0.060258	1.477
0.079009	1.4775
0.10664	1.478
0.12375	1.4785
0.12243	1.479
0.10664	1.4795
0.086576	1.48
0.076049	1.4805
0.068811	1.481
0.061903	1.4815
0.05335	1.482
0.043809	1.4825
0.049073	1.483
0.057297	1.4835
0.055652	1.484
0.034598	1.4845
0.0095965	1.485
0.0040045	1.4855
0.013544	1.486
0.012886	1.4865
0.0033465	1.487
-0.0012595	1.4875
0.0049915	1.488
0.018808	1.4885
0.029006	1.489
0.029664	1.4895
0.026374	1.49
0.02769	1.4905
0.029664	1.491
0.029664	1.4915
0.028677	1.492
0.025716	1.4925
0.021439	1.493
0.022426	1.4935
0.021439	1.494
0.018479	1.4945
0.017163	1.495
0.026703	1.4955
0.063548	1.496
0.11092	1.4965
0.11717	1.497
0.099077	1.4975
0.10105	1.498
0.11947	1.4985
0.12309	1.499
0.11421	1.4995
0.086247	1.5
0.024729	1.5005
-0.026262	1.501
-0.032841	1.5015
-0.0068515	1.502
-0.00060155	1.5025
-0.032512	1.503
-0.06508	1.5035
-0.069686	1.504
-0.06837	1.5045
-0.084819	1.505
-0.09074	1.5055
-0.081529	1.506
-0.082516	1.5065
-0.082845	1.507
-0.070673	1.5075
-0.05554	1.508
-0.050277	1.5085
-0.05554	1.509
-0.054224	1.5095
-0.044684	1.51
-0.038105	1.5105
-0.030538	1.511
-0.020998	1.5115
-0.0088255	1.512
0.0040045	1.5125
0.010254	1.513
0.0063075	1.5135
0.00038545	1.514
-0.0012595	1.5145
-0.00093055	1.515
0.0020305	1.5155
0.0072935	1.516
0.012886	1.5165
0.02111	1.517
0.033611	1.5175
0.05335	1.518
0.096116	1.5185
0.1527	1.519
0.18297	1.5195
0.17803	1.52
0.14316	1.5205
0.1152	1.521
0.11158	1.5215
0.1254	1.522
0.13165	1.5225
0.13428	1.523
0.16092	1.5235
0.17145	1.524
0.11388	1.5245
0.038875	1.525
0.030322	1.5255
0.047099	1.526
0.027361	1.5265
-0.042052	1.527
-0.1187	1.5275
-0.18219	1.528
-0.23055	1.5285
-0.27398	1.529
-0.29536	1.5295
-0.28944	1.53
-0.27464	1.5305
-0.24601	1.531
-0.2197	1.5315
-0.19568	1.532
-0.16081	1.5325
-0.13482	1.533
-0.12298	1.5335
-0.1016	1.534
-0.07495	1.5345
-0.061462	1.535
-0.043368	1.5355
0.00038545	1.536
0.047757	1.5365
0.079009	1.537
0.092826	1.5375
0.095458	1.538
0.092826	1.5385
0.079667	1.539
0.056968	1.5395
0.025387	1.54
-0.0068515	1.5405
-0.015735	1.541
-0.01705	1.5415
-0.023959	1.542
-0.021985	1.5425
-0.016721	1.543
-0.00093055	1.5435
0.044138	1.544
0.097761	1.5445
0.12737	1.545
0.15731	1.5455
0.20632	1.546
0.24646	1.5465
0.24383	1.547
0.21751	1.5475
0.16816	1.548
0.10467	1.5485
0.074404	1.549
0.08526	1.5495
0.07243	1.55
-0.0019175	1.5505
-0.095675	1.551
-0.16081	1.5515
-0.19502	1.552
-0.2141	1.5525
-0.21937	1.553
-0.20095	1.5535
-0.18121	1.554
-0.16739	1.5545
-0.14403	1.555
-0.11837	1.5555
-0.095017	1.556
-0.071002	1.5565
-0.05554	1.557
-0.048961	1.5575
-0.03975	1.558
-0.023301	1.5585
-0.014748	1.559
-0.0094835	1.5595
-0.0022465	1.56
0.0023595	1.5605
0.0063075	1.561
0.0079515	1.5615
0.0099255	1.562
0.010254	1.5625
0.01157	1.563
0.01815	1.5635
0.026374	1.564
0.028348	1.5645
0.026703	1.565
0.033282	1.5655
0.044796	1.566
0.050718	1.5665
0.046112	1.567
0.047099	1.5675
0.051047	1.568
0.05335	1.5685
0.056639	1.569
0.058613	1.5695
0.056639	1.57
0.054008	1.5705
0.050718	1.571
0.046112	1.5715
0.044467	1.572
0.046441	1.5725
0.046112	1.573
0.039204	1.5735
0.034598	1.574
0.030322	1.5745
0.024729	1.575
0.020781	1.5755
0.023084	1.576
0.030322	1.5765
0.035585	1.577
0.0244	1.5775
0.0059785	1.578
-0.0029045	1.5785
-0.0015885	1.579
0.0033465	1.5795
0.010254	1.58
0.0095965	1.5805
0.0040045	1.581
-0.00060155	1.5815
-0.00060155	1.582
0.0036755	1.5825
0.0082805	1.583
0.010583	1.5835
0.012886	1.584
0.011899	1.5845
0.0049915	1.585
-0.0038915	1.5855
-0.0012595	1.586
0.022756	1.5865
0.054994	1.587
0.081312	1.5875
0.099406	1.588
0.1073	1.5885
0.12309	1.589
0.14546	1.5895
0.14184	1.59
0.10697	1.5905
0.074404	1.591
0.059929	1.5915
0.034927	1.592
-0.024617	1.5925
-0.095346	1.593
-0.14074	1.5935
-0.1516	1.594
-0.14403	1.5945
-0.13022	1.595
-0.12166	1.5955
-0.11706	1.596
-0.10456	1.5965
-0.086135	1.597
-0.075936	1.5975
-0.073963	1.598
-0.074621	1.5985
-0.072647	1.599
-0.064751	1.5995
-0.052908	1.6
-0.048303	1.6005
-0.047974	1.601
-0.04271	1.6015
-0.030209	1.602
-0.01409	1.6025
-0.0042205	1.603
-0.0068515	1.6035
-0.0088255	1.604
0.0059785	1.6045
0.020123	1.605
0.016505	1.6055
0.0020305	1.606
-0.0015885	1.6065
0.0079515	1.607
0.025716	1.6075
0.056968	1.608
0.10763	1.6085
0.17902	1.609
0.28593	1.6095
0.36982	1.61
0.36752	1.6105
0.33034	1.611
0.306	1.6115
0.28166	1.612
0.24152	1.6125
0.1606	1.613
0.037888	1.6135
-0.071331	1.614
-0.15982	1.6145
-0.24207	1.615
-0.32069	1.6155
-0.37859	1.616
-0.37596	1.6165
-0.32036	1.617
-0.26674	1.6175
-0.23417	1.618
-0.22299	1.6185
-0.21937	1.619
-0.19239	1.6195
-0.1493	1.62
-0.12462	1.6205
-0.11837	1.621
-0.10324	1.6215
-0.076265	1.622
-0.049948	1.6225
-0.03317	1.623
-0.026591	1.6235
-0.031196	1.624
-0.026262	1.6245
-0.0088255	1.625
0.022426	1.6255
0.059929	1.626
0.082957	1.6265
0.088221	1.627
0.090523	1.6275
0.10006	1.628
0.11158	1.6285
0.11092	1.629
0.098748	1.6295
0.079338	1.63
0.05335	1.6305
0.022097	1.631
-0.0012595	1.6315
-0.0071805	1.632
-0.0061935	1.6325
-0.011458	1.633
-0.027907	1.6335
-0.041723	1.634
-0.035144	1.6345
-0.020011	1.635
-0.013103	1.6355
-0.013103	1.636
-0.0075095	1.6365
0.0066365	1.637
0.016176	1.6375
0.021768	1.638
0.030651	1.6385
0.036572	1.639
0.031966	1.6395
0.024729	1.64
0.025716	1.6405
0.027361	1.641
0.025058	1.6415
0.024729	1.642
0.028677	1.6425
0.028019	1.643
0.035585	1.6435
0.055652	1.644
0.065522	1.6445
0.060916	1.645
0.051047	1.6455
0.052034	1.646
0.063548	1.6465
0.068482	1.647
0.062561	1.6475
0.054994	1.648
0.042165	1.6485
0.028348	1.649
0.026703	1.6495
0.028019	1.65
0.020123	1.6505
0.0056495	1.651
-0.00093055	1.6515
0.0040045	1.652
0.016834	1.6525
0.014531	1.653
0.0040045	1.6535
-0.0075095	1.654
-0.02034	1.6545
-0.035802	1.655
-0.056856	1.6555
-0.063765	1.656
-0.044026	1.6565
-0.017379	1.657
-0.0045495	1.6575
-0.0025755	1.658
-0.0075095	1.6585
-0.017379	1.659
-0.021327	1.6595
-0.027578	1.66
-0.04271	1.6605
-0.049619	1.661
-0.045342	1.6615
-0.048961	1.662
-0.058172	1.6625
-0.057514	1.663
-0.053237	1.6635
-0.052579	1.664
-0.048961	1.6645
-0.03975	1.665
-0.02988	1.6655
-0.022972	1.666
-0.010471	1.6665
0.0059785	1.667
0.011899	1.6675
0.01157	1.668
0.01486	1.6685
0.019794	1.669
0.021439	1.6695
0.040191	1.67
0.1175	1.6705
0.20007	1.671
0.23363	1.6715
0.25698	1.672
0.2935	1.6725
0.29646	1.673
0.25402	1.6735
0.19316	1.674
0.11849	1.6745
0.0596	1.675
0.029335	1.6755
-0.0068515	1.676
-0.074621	1.6765
-0.15818	1.677
-0.24305	1.6775
-0.28615	1.678
-0.28319	1.6785
-0.26312	1.679
-0.24437	1.6795
-0.22463	1.68
-0.19897	1.6805
-0.16805	1.681
-0.13482	1.6815
-0.11048	1.682
-0.092714	1.6825
-0.075279	1.683
-0.066067	1.6835
-0.071002	1.684
-0.071989	1.6845
-0.056198	1.685
-0.039421	1.6855
-0.030538	1.686
-0.012116	1.6865
0.019794	1.687
0.044467	1.6875
0.064206	1.688
0.10105	1.6885
0.1527	1.689
0.18297	1.6895
0.18033	1.69
0.17211	1.6905
0.18428	1.691
0.19382	1.6915
0.18033	1.692
0.14217	1.6925
0.10928	1.693
0.093484	1.6935
0.054994	1.694
-0.0081675	1.6945
-0.056856	1.695
-0.085806	1.6955
-0.11278	1.696
-0.14897	1.6965
-0.16936	1.697
-0.16311	1.6975
-0.14436	1.698
-0.12462	1.6985
-0.10686	1.699
-0.092714	1.6995
-0.083174	1.7
-0.072318	1.7005
-0.056856	1.701
-0.043368	1.7015
-0.031196	1.702
-0.019024	1.7025
-0.0048775	1.703
0.0099255	1.7035
0.015518	1.704
0.013215	1.7045
0.017163	1.705
0.028019	1.7055
0.035914	1.706
0.038217	1.7065
0.040191	1.707
0.047099	1.7075
0.05006	1.708
0.041836	1.7085
0.036901	1.709
0.03394	1.7095
0.026045	1.71
0.022756	1.7105
0.030979	1.711
0.04348	1.7115
0.043809	1.712
0.043809	1.7125
0.062232	1.713
0.094471	1.7135
0.11224	1.714
0.098748	1.7145
0.085589	1.715
0.11224	1.7155
0.15105	1.716
0.13592	1.7165
0.093155	1.717
0.093155	1.7175
0.11388	1.718
0.087234	1.7185
0.011899	1.719
-0.059159	1.7195
-0.10456	1.72
-0.12528	1.7205
-0.14732	1.721
-0.16081	1.7215
-0.14831	1.722
-0.12364	1.7225
-0.10324	1.723
-0.085477	1.7235
-0.073963	1.724
-0.066067	1.7245
-0.051593	1.725
-0.037118	1.7255
-0.030209	1.726
-0.025604	1.7265
-0.014748	1.727
0.010583	1.7275
0.035585	1.728
0.064864	1.7285
0.12441	1.729
0.2254	1.7295
0.34153	1.73
0.37706	1.7305
0.32574	1.731
0.2606	1.7315
0.22409	1.732
0.20172	1.7325
0.1856	1.733
0.14119	1.7335
0.0066365	1.734
-0.1516	1.7345
-0.23845	1.735
-0.24634	1.7355
-0.24108	1.736
-0.25884	1.7365
-0.27628	1.737
-0.27562	1.7375
-0.27003	1.738
-0.25917	1.7385
-0.23483	1.739
-0.21476	1.7395
-0.20029	1.74
-0.17989	1.7405
-0.1493	1.741
-0.11903	1.7415
-0.097649	1.742
-0.084161	1.7425
-0.069028	1.743
-0.053566	1.7435
-0.041723	1.744
-0.031854	1.7445
-0.018037	1.745
-0.0052065	1.7455
-0.0012595	1.746
0.0023595	1.7465
0.016505	1.747
0.036243	1.7475
0.050718	1.748
0.054008	1.7485
0.055981	1.749
0.064535	1.7495
0.072101	1.75
0.07868	1.7505
0.082299	1.751
0.080325	1.7515
0.07868	1.752
0.076707	1.7525
0.074733	1.753
0.076707	1.7535
0.076707	1.754
0.068153	1.7545
0.055981	1.755
0.047428	1.7555
0.045125	1.756
0.037888	1.7565
0.025716	1.757
0.019794	1.7575
0.015518	1.758
0.016505	1.7585
0.017492	1.759
0.016834	1.7595
0.020781	1.76
0.02769	1.7605
0.027361	1.761
0.021439	1.7615
0.019794	1.762
0.019465	1.7625
0.019794	1.763
0.025058	1.7635
0.028019	1.764
0.02769	1.7645
0.033611	1.765
0.036243	1.7655
0.034598	1.766
0.029335	1.7665
0.033282	1.767
0.043809	1.7675
0.060587	1.768
0.078023	1.7685
0.081312	1.769
0.068153	1.7695
0.051705	1.77
0.04052	1.7705
0.029993	1.771
0.012886	1.7715
-0.0068515	1.772
-0.022314	1.7725
-0.030538	1.773
-0.02692	1.7735
-0.030209	1.774
-0.05225	1.7745
-0.081529	1.775
-0.096004	1.7755
-0.089424	1.776
-0.071989	1.7765
-0.058172	1.777
-0.034815	1.7775
-0.0032335	1.778
0.012557	1.7785
0.023084	1.779
0.040191	1.7795
0.043151	1.78
0.031308	1.7805
0.028019	1.781
0.038217	1.7815
0.045783	1.782
0.047099	1.7825
0.036243	1.783
0.0244	1.7835
0.022756	1.784
0.040191	1.7845
0.069469	1.785
0.078023	1.7855
0.059271	1.786
0.052034	1.7865
0.072759	1.787
0.10401	1.7875
0.14053	1.788
0.1731	1.7885
0.1527	1.789
0.088221	1.7895
0.037559	1.79
-0.0084965	1.7905
-0.073305	1.791
-0.14469	1.7915
-0.197	1.792
-0.21345	1.7925
-0.21739	1.793
-0.21739	1.7935
-0.20654	1.794
-0.18285	1.7945
-0.1641	1.795
-0.16081	1.7955
-0.15851	1.796
-0.14305	1.7965
-0.11772	1.797
-0.092385	1.7975
-0.074292	1.798
-0.063436	1.7985
-0.060475	1.799
-0.046	1.7995
-0.018695	1.8
0.0046625	1.8005
0.0095965	1.801
0.018479	1.8015
0.072101	1.802
0.12934	1.8025
0.14678	1.803
0.14678	1.8035
0.14645	1.804
0.12967	1.8045
0.089537	1.805
0.055323	1.8055
0.016834	1.806
-0.02988	1.8065
-0.04929	1.807
-0.045013	1.8075
-0.046658	1.808
-0.061791	1.8085
-0.070015	1.809
-0.06212	1.8095
-0.053895	1.81
-0.061791	1.8105
-0.065409	1.811
-0.04929	1.8115
-0.038763	1.812
-0.036131	1.8125
-0.034815	1.813
-0.03317	1.8135
-0.028564	1.814
-0.013432	1.8145
0.016176	1.815
0.043809	1.8155
0.056639	1.816
0.055981	1.8165
0.055323	1.817
0.06289	1.8175
0.069469	1.818
0.06618	1.8185
0.049402	1.819
0.029664	1.8195
0.01157	1.82
-0.0038915	1.8205
-0.016393	1.821
-0.022972	1.8215
-0.021656	1.822
-0.012116	1.8225
5.65E-05	1.823
0.0040045	1.8235
-0.0012595	1.824
-0.00027255	1.8245
0.012228	1.825
0.023742	1.8255
0.026045	1.826
0.022097	1.8265
0.020781	1.827
0.028019	1.8275
0.052034	1.828
0.096774	1.8285
0.13822	1.829
0.14415	1.8295
0.13033	1.83
0.11421	1.8305
0.098748	1.831
0.079996	1.8315
0.050389	1.832
0.02111	1.8325
0.0056495	1.833
-0.0068515	1.8335
-0.027249	1.834
-0.06212	1.8345
-0.10653	1.835
-0.13219	1.8355
-0.13219	1.836
-0.11607	1.8365
-0.097978	1.837
-0.075936	1.8375
-0.057185	1.838
-0.047645	1.8385
-0.042052	1.839
-0.03317	1.8395
-0.021656	1.84
-0.013103	1.8405
-0.010142	1.841
0.0026885	1.8415
0.035256	1.842
0.053021	1.8425
0.050389	1.843
0.063219	1.8435
0.093813	1.844
0.11487	1.8445
0.12046	1.845
0.11651	1.8455
0.10895	1.846
0.08855	1.8465
0.047428	1.847
0.0095965	1.8475
-0.0061935	1.848
0.0010435	1.8485
0.012886	1.849
0.01157	1.8495
-0.0052065	1.85
-0.015406	1.8505
-0.00027255	1.851
0.011899	1.8515
-0.0052065	1.852
-0.029222	1.8525
-0.036789	1.853
-0.046	1.8535
-0.075608	1.854
-0.10028	1.8545
-0.11146	1.855
-0.11969	1.8555
-0.12429	1.856
-0.12232	1.8565
-0.11114	1.857
-0.091069	1.8575
-0.073634	1.858
-0.061791	1.8585
-0.053237	1.859
-0.045013	1.8595
-0.032512	1.86
-0.013103	1.8605
0.0053205	1.861
0.010912	1.8615
0.0092675	1.862
0.0066365	1.8625
0.0026885	1.863
0.0043335	1.8635
0.017163	1.864
0.033282	1.8645
0.042494	1.865
0.047428	1.8655
0.062232	1.866
0.10763	1.8665
0.1754	1.867
0.20599	1.8675
0.18395	1.868
0.17112	1.8685
0.17935	1.869
0.17869	1.8695
0.16092	1.87
0.13395	1.8705
0.090852	1.871
0.019794	1.8715
-0.057843	1.872
-0.11015	1.8725
-0.14338	1.873
-0.17956	1.8735
-0.19864	1.874
-0.1868	1.8745
-0.16147	1.875
-0.14535	1.8755
-0.13515	1.876
-0.11739	1.8765
-0.096333	1.877
-0.075936	1.8775
-0.059488	1.878
-0.051593	1.8785
-0.044026	1.879
-0.026591	1.8795
0.01157	1.88
0.07243	1.8805
0.097103	1.881
0.078351	1.8815
0.056639	1.882
0.049402	1.8825
0.044796	1.883
0.030979	1.8835
0.00071445	1.884
-0.050606	1.8845
-0.087122	1.885
-0.083832	1.8855
-0.046658	1.886
-0.013103	1.8865
-0.0078385	1.887
-0.018695	1.8875
-0.024288	1.888
-0.011129	1.8885
0.0053205	1.889
0.011899	1.8895
0.012228	1.89
0.026374	1.8905
0.04348	1.891
0.044796	1.8915
0.038217	1.892
0.031637	1.8925
0.019794	1.893
0.0076225	1.8935
-0.0019175	1.894
-0.018695	1.8945
-0.037776	1.895
-0.045671	1.8955
-0.032512	1.896
-0.011787	1.8965
0.0049915	1.897
0.01815	1.8975
0.029993	1.898
0.04052	1.8985
0.044138	1.899
0.041507	1.8995
0.042822	1.9
0.044796	1.9005
0.037888	1.901
0.035914	1.9015
0.044138	1.902
0.047099	1.9025
0.036901	1.903
0.016505	1.9035
0.0072935	1.904
0.012557	1.9045
0.0099255	1.905
-0.0055355	1.9055
-0.022314	1.906
-0.025275	1.9065
-0.013432	1.907
0.0017015	1.9075
0.014531	1.908
0.012228	1.9085
-0.00093055	1.909
-0.011129	1.9095
-0.0088255	1.91
0.00038545	1.9105
0.0082805	1.911
0.0095965	1.9115
0.0053205	1.912
0.00038545	1.9125
0.0010435	1.913
0.0043335	1.9135
-0.0035625	1.914
-0.0108	1.9145
-0.0022465	1.915
0.01486	1.9155
0.034598	1.916
0.047099	1.9165
0.04677	1.917
0.035256	1.9175
0.027361	1.918
0.030322	1.9185
0.035256	1.919
0.036243	1.9195
0.029335	1.92
0.0036755	1.9205
-0.019024	1.921
-0.025275	1.9215
-0.031196	1.922
-0.046987	1.9225
-0.056198	1.923
-0.051922	1.9235
-0.040736	1.924
-0.034486	1.9245
-0.02692	1.925
-0.018366	1.9255
-0.014748	1.926
-0.015406	1.9265
-0.015077	1.927
-0.016721	1.9275
-0.02363	1.928
-0.030209	1.9285
-0.02988	1.929
-0.020011	1.9295
-0.0052065	1.93
0.0076225	1.9305
0.019794	1.931
0.026703	1.9315
0.021768	1.932
0.0056495	1.9325
-0.010142	1.933
-0.014748	1.9335
-0.013761	1.934
-0.018695	1.9345
-0.030538	1.935
-0.03975	1.9355
-0.021327	1.936
0.023413	1.9365
0.04677	1.937
0.040191	1.9375
0.027032	1.938
0.028019	1.9385
0.038875	1.939
0.044467	1.9395
0.034269	1.94
0.026703	1.9405
0.017821	1.941
-0.0038915	1.9415
-0.0048775	1.942
0.021768	1.9425
0.039862	1.943
0.040191	1.9435
0.054665	1.944
0.09151	1.9445
0.12211	1.945
0.12013	1.9455
0.09809	1.946
0.07868	1.9465
0.064535	1.947
0.032624	1.9475
-0.015406	1.948
-0.050935	1.9485
-0.073963	1.949
-0.099951	1.9495
-0.1164	1.95
-0.087779	1.9505
-0.049619	1.951
-0.043368	1.9515
-0.066725	1.952
-0.073634	1.9525
-0.059488	1.953
-0.054882	1.9535
-0.05883	1.954
-0.055869	1.9545
-0.056856	1.955
-0.050277	1.9555
0.0017015	1.956
0.065851	1.9565
0.076049	1.957
0.056968	1.9575
0.054665	1.958
0.065193	1.9585
0.071114	1.959
0.078351	1.9595
0.058284	1.96
-0.0012595	1.9605
-0.052579	1.961
-0.069357	1.9615
-0.069686	1.962
-0.079226	1.9625
-0.093372	1.963
-0.095017	1.9635
-0.086135	1.964
-0.079226	1.9645
-0.062449	1.965
-0.025604	1.9655
0.0095965	1.966
0.0244	1.9665
0.061245	1.967
0.11914	1.9675
0.13263	1.968
0.094471	1.9685
0.056639	1.969
0.036243	1.9695
0.018479	1.97
0.0069655	1.9705
-0.011458	1.971
-0.06212	1.9715
-0.12298	1.972
-0.14995	1.9725
-0.14535	1.973
-0.13416	1.9735
-0.12824	1.974
-0.12791	1.9745
-0.12331	1.975
-0.10686	1.9755
-0.085806	1.976
-0.065409	1.9765
-0.040407	1.977
-0.0088255	1.9775
0.038217	1.978
0.082299	1.9785
0.087892	1.979
0.074733	1.9795
0.070127	1.98
0.070785	1.9805
0.06289	1.981
0.048744	1.9815
0.04052	1.982
0.04052	1.9825
0.03394	1.983
0.02111	1.9835
0.010254	1.984
-0.0015885	1.9845
-0.0108	1.985
-0.016064	1.9855
-0.022643	1.986
-0.034157	1.9865
-0.039421	1.987
-0.019682	1.9875
0.013544	1.988
0.041507	1.9885
0.051705	1.989
0.051376	1.9895
0.04677	1.99
0.042494	1.9905
0.030979	1.991
0.012557	1.9915
-0.00027255	1.992
-0.0048775	1.9925
-0.010471	1.993
-0.02034	1.9935
-0.033828	1.994
-0.041723	1.9945
-0.036789	1.995
-0.022643	1.9955
-0.0075095	1.996
0.0023595	1.9965
0.0049915	1.997
0.010583	1.9975
0.020123	1.998
0.032624	1.9985
0.039533	1.999
0.033282	1.9995
0.021768	2
0.018808	2.0005
0.025716	2.001
0.038546	2.0015
0.050389	2.002
0.048415	2.0025
0.03723	2.003
0.026703	2.0035
0.016505	2.004
0.014202	2.0045
0.019794	2.005
0.014202	2.0055
-0.0042205	2.006
-0.018037	2.0065
-0.017379	2.007
-0.0055355	2.0075
0.0089385	2.008
0.01815	2.0085
0.024071	2.009
0.021768	2.0095
0.017492	2.01
0.022097	2.0105
0.031637	2.011
0.034598	2.0115
0.032624	2.012
0.031308	2.0125
0.030322	2.013
0.029335	2.0135
0.025387	2.014
0.01486	2.0145
0.0036755	2.015
-0.0029045	2.0155
-0.013761	2.016
-0.027907	2.0165
-0.035473	2.017
-0.03317	2.0175
-0.025604	2.018
-0.018366	2.0185
-0.010142	2.019
-0.0052065	2.0195
-0.0038915	2.02
-0.0058645	2.0205
-0.0012595	2.021
0.0079515	2.0215
0.019794	2.022
0.035914	2.0225
0.047757	2.023
0.045783	2.0235
0.04052	2.024
0.045783	2.0245
0.05631	2.025
0.06914	2.0255
0.070785	2.026
0.056639	2.0265
0.036572	2.027
0.033282	2.0275
0.038875	2.028
0.026045	2.0285
0.0036755	2.029
-0.014748	2.0295
-0.034815	2.03
-0.056527	2.0305
-0.061133	2.031
-0.056198	2.0315
-0.052908	2.032
-0.054553	2.0325
-0.050606	2.033
-0.029551	2.0335
-0.016721	2.034
-0.01409	2.0345
-0.0068515	2.035
0.0026885	2.0355
-0.0065225	2.036
-0.024617	2.0365
-0.032183	2.037
-0.042052	2.0375
-0.064093	2.038
-0.093043	2.0385
-0.10818	2.039
-0.10818	2.0395
-0.10028	2.04
-0.088437	2.0405
-0.080542	2.041
-0.073963	2.0415
-0.064093	2.042
-0.051264	2.0425
-0.041394	2.043
-0.037776	2.0435
-0.038434	2.044
-0.031525	2.0445
-0.017708	2.045
-0.0091545	2.0455
-0.0068515	2.046
-0.0035625	2.0465
0.0043335	2.047
0.013873	2.0475
0.018479	2.048
0.013544	2.0485
0.010912	2.049
0.052363	2.0495
0.16882	2.05
0.27903	2.0505
0.37508	2.051
0.4593	2.0515
0.4774	2.052
0.41785	2.0525
0.33528	2.053
0.29054	2.0535
0.24777	2.054
0.16652	2.0545
0.066837	2.055
-0.046329	2.0555
-0.16904	2.056
-0.27003	2.0565
-0.32497	2.057
-0.34142	2.0575
-0.33188	2.058
-0.31214	2.0585
-0.2924	2.059
-0.25983	2.0595
-0.22891	2.06
-0.21575	2.0605
-0.21081	2.061
-0.20687	2.0615
-0.20193	2.062
-0.18219	2.0625
-0.15719	2.063
-0.13252	2.0635
-0.10554	2.064
-0.084161	2.0645
-0.069357	2.065
-0.055211	2.0655
-0.036789	2.066
-0.018366	2.0665
5.65E-05	2.067
0.017821	2.0675
0.029006	2.068
0.039533	2.0685
0.051376	2.069
0.055323	2.0695
0.049731	2.07
0.048086	2.0705
0.052363	2.071
0.051705	2.0715
0.048415	2.072
0.057626	2.0725
0.080325	2.073
0.0948	2.0735
0.08855	2.074
0.069469	2.0745
0.05631	2.075
0.054008	2.0755
0.060916	2.076
0.06618	2.0765
0.058942	2.077
0.039533	2.0775
0.028677	2.078
0.039204	2.0785
0.051047	2.079
0.051376	2.0795
0.047428	2.08
0.046441	2.0805
0.039533	2.081
0.024071	2.0815
0.012886	2.082
0.016176	2.0825
0.02769	2.083
0.034598	2.0835
0.031966	2.084
0.026045	2.0845
0.019794	2.085
0.018479	2.0855
0.01815	2.086
0.015189	2.0865
0.015189	2.087
0.019465	2.0875
0.031966	2.088
0.048744	2.0885
0.067166	2.089
0.084273	2.0895
0.095787	2.09
0.099077	2.0905
0.10039	2.091
0.095458	2.0915
0.077036	2.092
0.055981	2.0925
0.032624	2.093
0.0023595	2.0935
-0.038763	2.094
-0.069028	2.0945
-0.070344	2.095
-0.073305	2.0955
-0.08449	2.096
-0.091069	2.0965
-0.093701	2.097
-0.090411	2.0975
-0.085806	2.098
-0.080213	2.0985
-0.072647	2.099
-0.062778	2.0995
-0.049619	2.1
-0.041065	2.1005
-0.032512	2.101
-0.016721	2.1015
0.0030175	2.102
0.020452	2.1025
0.049402	2.103
0.13066	2.1035
0.22244	2.104
0.26389	2.1045
0.24185	2.105
0.19514	2.1055
0.16158	2.106
0.12474	2.1065
0.074733	2.107
0.010912	2.1075
-0.040079	2.108
-0.060146	2.1085
-0.090411	2.109
-0.14305	2.1095
-0.19469	2.11
-0.22661	2.1105
-0.22726	2.111
-0.19667	2.1115
-0.16871	2.112
-0.14699	2.1125
-0.12857	2.113
-0.10982	2.1135
-0.086464	2.114
-0.058501	2.1145
-0.036789	2.115
-0.019024	2.1155
-0.0019175	2.116
0.0089385	2.1165
0.0059785	2.117
-0.0025755	2.1175
-0.0081675	2.118
-0.0071805	2.1185
-0.0075095	2.119
-0.013761	2.1195
-0.024617	2.12
-0.046329	2.1205
-0.059488	2.121
-0.053566	2.1215
-0.038105	2.122
-0.025275	2.1225
-0.019682	2.123
-0.0108	2.1235
0.0086095	2.124
0.028677	2.1245
0.038217	2.125
0.032624	2.1255
0.020781	2.126
0.016176	2.1265
0.019136	2.127
0.025716	2.1275
0.034269	2.128
0.043809	2.1285
0.054994	2.129
0.072101	2.1295
0.079009	2.13
0.07243	2.1305
0.072759	2.131
0.072759	2.1315
0.06289	2.132
0.048086	2.1325
0.030322	2.133
0.014202	2.1335
0.0043335	2.134
-0.010142	2.1345
-0.023959	2.135
-0.026591	2.1355
-0.020669	2.136
-0.012774	2.1365
-0.0094835	2.137
-0.0108	2.1375
-0.0042205	2.138
0.012557	2.1385
0.027032	2.139
0.029006	2.1395
0.029335	2.14
0.031966	2.1405
0.033282	2.141
0.034598	2.1415
0.034927	2.142
0.029335	2.1425
0.030322	2.143
0.039862	2.1435
0.038875	2.144
0.017821	2.1445
0.0046625	2.145
0.010583	2.1455
0.01486	2.146
-0.00027255	2.1465
-0.013761	2.147
-0.014419	2.1475
-0.020011	2.148
-0.034815	2.1485
-0.045342	2.149
-0.046	2.1495
-0.045342	2.15
-0.039421	2.1505
-0.028236	2.151
-0.020998	2.1515
-0.019024	2.152
-0.016393	2.1525
-0.0081675	2.153
0.0046625	2.1535
0.015518	2.154
0.027032	2.1545
0.037888	2.155
0.040849	2.1555
0.044467	2.156
0.053021	2.1565
0.064206	2.157
0.083944	2.1575
0.11289	2.158
0.12178	2.1585
0.097103	2.159
0.074075	2.1595
0.072101	2.16
0.071443	2.1605
0.051047	2.161
0.0069655	2.1615
-0.027578	2.162
-0.040736	2.1625
-0.033499	2.163
-0.030867	2.1635
-0.048632	2.164
-0.075608	2.1645
-0.085148	2.165
-0.070344	2.1655
-0.074621	2.166
-0.099294	2.1665
-0.10489	2.167
-0.093372	2.1675
-0.092385	2.168
-0.10949	2.1685
-0.12693	2.169
-0.12726	2.1695
-0.12429	2.17
-0.12166	2.1705
-0.1062	2.171
-0.083503	2.1715
-0.063107	2.172
-0.044355	2.1725
-0.028236	2.173
-0.012774	2.1735
0.0076225	2.174
0.0244	2.1745
0.029664	2.175
0.02769	2.1755
0.029993	2.176
0.039862	2.1765
0.054994	2.177
0.089208	2.1775
0.16158	2.178
0.20205	2.1785
0.17704	2.179
0.13395	2.1795
0.1096	2.18
0.097761	2.1805
0.079338	2.181
0.032295	2.1815
-0.051922	2.182
-0.11969	2.1825
-0.1312	2.183
-0.097978	2.1835
-0.076265	2.184
-0.070015	2.1845
-0.056527	2.185
-0.032183	2.1855
-0.0081675	2.186
-0.0012595	2.1865
-0.0042205	2.187
-0.0048775	2.1875
5.65E-05	2.188
-0.0012595	2.1885
-0.0084965	2.189
-0.013103	2.1895
-0.022643	2.19
-0.034486	2.1905
-0.042381	2.191
-0.037118	2.1915
-0.028236	2.192
-0.019682	2.1925
-0.010471	2.193
-0.0015885	2.1935
0.0049915	2.194
0.0092675	2.1945
0.017821	2.195
0.0244	2.1955
0.029335	2.196
0.028019	2.1965
0.021439	2.197
0.018808	2.1975
0.017821	2.198
0.01486	2.1985
0.012228	2.199
0.010583	2.1995
0.014202	2.2
0.020123	2.2005
0.022756	2.201
0.025058	2.2015
0.021768	2.202
0.014531	2.2025
0.013544	2.203
0.020781	2.2035
0.031308	2.204
0.040191	2.2045
0.044467	2.205
0.044796	2.2055
0.043151	2.206
0.042165	2.2065
0.040849	2.207
0.042822	2.2075
0.047757	2.208
0.044138	2.2085
0.030322	2.209
0.0069655	2.2095
-0.013103	2.21
-0.02034	2.2105
-0.016393	2.211
-0.011787	2.2115
-0.017379	2.212
-0.022643	2.2125
-0.019024	2.213
-0.0108	2.2135
-0.0094835	2.214
-0.011458	2.2145
-0.017379	2.215
-0.019353	2.2155
-0.016064	2.216
-0.010142	2.2165
-0.010142	2.217
-0.016721	2.2175
-0.018366	2.218
-0.014748	2.2185
-0.012445	2.219
-0.012116	2.2195
-0.0091545	2.22
-0.0022465	2.2205
5.65E-05	2.221
0.0020305	2.2215
0.01815	2.222
0.055981	2.2225
0.10105	2.223
0.1402	2.2235
0.19316	2.224
0.23856	2.2245
0.24185	2.225
0.22244	2.2255
0.19908	2.226
0.17277	2.2265
0.12967	2.227
0.06914	2.2275
0.0017015	2.228
-0.085806	2.2285
-0.18779	2.229
-0.26411	2.2295
-0.29635	2.23
-0.29306	2.2305
-0.26279	2.231
-0.22332	2.2315
-0.18515	2.232
-0.15456	2.2325
-0.13581	2.233
-0.12166	2.2335
-0.1062	2.234
-0.091727	2.2345
-0.077581	2.235
-0.064093	2.2355
-0.049619	2.236
-0.034815	2.2365
-0.025933	2.237
-0.019353	2.2375
-0.0068515	2.238
0.024071	2.2385
0.089208	2.239
0.17441	2.2395
0.25304	2.24
0.3366	2.2405
0.39186	2.241
0.39055	2.2415
0.3491	2.242
0.2856	2.2425
0.22376	2.243
0.16816	2.2435
0.092168	2.244
-0.023959	2.2445
-0.14634	2.245
-0.20522	2.2455
-0.2095	2.246
-0.22529	2.2465
-0.27167	2.247
-0.31345	2.2475
-0.31049	2.248
-0.27431	2.2485
-0.2345	2.249
-0.19864	2.2495
-0.16871	2.25
-0.14305	2.2505
-0.11443	2.251
-0.088437	2.2515
-0.073305	2.252
-0.060475	2.2525
-0.045671	2.253
-0.032841	2.2535
-0.026591	2.254
-0.020011	2.2545
-0.01705	2.255
-0.0078385	2.2555
0.0079515	2.256
0.016505	2.2565
0.019136	2.257
0.024729	2.2575
0.042165	2.258
0.069469	2.2585
0.097103	2.259
0.10368	2.2595
0.091181	2.26
0.083286	2.2605
0.08197	2.261
0.077694	2.2615
0.074733	2.262
0.065193	2.2625
0.046112	2.263
0.034927	2.2635
0.032953	2.264
0.029006	2.2645
0.022097	2.265
0.012557	2.2655
0.0049915	2.266
0.0059785	2.2665
0.014202	2.267
0.021439	2.2675
0.023413	2.268
0.024071	2.2685
0.024071	2.269
0.026374	2.2695
0.025716	2.27
0.028019	2.2705
0.035256	2.271
0.045783	2.2715
0.050389	2.272
0.047428	2.2725
0.043151	2.273
0.047757	2.2735
0.058284	2.274
0.073088	2.2745
0.081312	2.275
0.080983	2.2755
0.076049	2.276
0.067166	2.2765
0.062561	2.277
0.054994	2.2775
0.032624	2.278
0.0046625	2.2785
-0.01705	2.279
-0.02034	2.2795
0.028348	2.28
0.08855	2.2805
0.097103	2.281
0.070785	2.2815
0.063877	2.282
0.071443	2.2825
0.066508	2.283
0.039204	2.2835
-0.0091545	2.284
-0.044355	2.2845
-0.057185	2.285
-0.059488	2.2855
-0.075936	2.286
-0.10423	2.2865
-0.12397	2.287
-0.12956	2.2875
-0.12956	2.288
-0.12627	2.2885
-0.11936	2.289
-0.11146	2.2895
-0.10521	2.29
-0.091398	2.2905
-0.074621	2.291
-0.06212	2.2915
-0.047316	2.292
-0.03317	2.2925
-0.027907	2.293
-0.025933	2.2935
-0.020011	2.294
-0.018037	2.2945
-0.015735	2.295
-0.010471	2.2955
-0.0045495	2.296
-0.0055355	2.2965
-0.0045495	2.297
-0.0029045	2.2975
-0.0022465	2.298
-0.00093055	2.2985
0.00038545	2.299
0.0086095	2.2995
0.022426	2.3
0.035256	2.3005
0.04677	2.301
0.052034	2.3015
0.051705	2.302
0.048744	2.3025
0.040849	2.303
0.029993	2.3035
0.022097	2.304
0.025058	2.3045
0.027032	2.305
0.026374	2.3055
0.028348	2.306
0.031308	2.3065
0.029993	2.307
0.022097	2.3075
0.014531	2.308
0.013873	2.3085
0.014202	2.309
0.0089385	2.3095
0.0020305	2.31
-0.0088255	2.3105
-0.013103	2.311
-0.0084965	2.3115
-0.010142	2.312
-0.012445	2.3125
-0.0081675	2.313
0.0030175	2.3135
0.010254	2.314
0.015847	2.3145
0.02769	2.315
0.040849	2.3155
0.050718	2.316
0.055981	2.3165
0.045783	2.317
0.019465	2.3175
-0.015077	2.318
-0.036789	2.3185
-0.041065	2.319
-0.045013	2.3195
-0.05225	2.32
-0.048303	2.3205
-0.034157	2.321
-0.027578	2.3215
-0.023959	2.322
-0.00093055	2.3225
0.022426	2.323
0.037888	2.3235
0.048415	2.324
0.054665	2.3245
0.057626	2.325
0.0596	2.3255
0.057626	2.326
0.043151	2.3265
0.012886	2.327
-0.026591	2.3275
-0.063107	2.328
-0.085148	2.3285
-0.086135	2.329
-0.079226	2.3295
-0.075936	2.33
-0.065738	2.3305
-0.045013	2.331
-0.028236	2.3315
-0.015406	2.332
0.017492	2.3325
0.048415	2.333
0.066837	2.3335
0.090194	2.334
0.11257	2.3345
0.11421	2.335
0.091181	2.3355
0.061574	2.336
0.035914	2.3365
0.0056495	2.337
-0.032512	2.3375
-0.065738	2.338
-0.086464	2.3385
-0.094359	2.339
-0.096004	2.3395
-0.091727	2.34
-0.084161	2.3405
-0.071002	2.341
-0.061462	2.3415
-0.053895	2.342
-0.040736	2.3425
-0.020011	2.343
-0.00093055	2.3435
0.020452	2.344
0.04677	2.3445
0.074075	2.345
0.094471	2.3455
0.095787	2.346
0.083286	2.3465
0.082299	2.347
0.11191	2.3475
0.19316	2.348
0.28363	2.3485
0.32048	2.349
0.29383	2.3495
0.23659	2.35
0.18823	2.3505
0.15632	2.351
0.12079	2.3515
0.064535	2.352
-0.0052065	2.3525
-0.088766	2.353
-0.14995	2.3535
-0.18713	2.354
-0.22989	2.3545
-0.25095	2.355
-0.23055	2.3555
-0.20029	2.356
-0.19733	2.3565
-0.21147	2.357
-0.22858	2.3575
-0.23845	2.358
-0.22595	2.3585
-0.18976	2.359
-0.15324	2.3595
-0.13811	2.36
-0.13384	2.3605
-0.13482	2.361
-0.12726	2.3615
-0.11081	2.362
-0.094359	2.3625
-0.08449	2.363
-0.070015	2.3635
-0.047974	2.364
-0.031196	2.3645
-0.013103	2.365
0.010583	2.3655
0.043151	2.366
0.071772	2.3665
0.086905	2.367
0.099077	2.3675
0.12309	2.368
0.14382	2.3685
0.14645	2.369
0.13658	2.3695
0.11618	2.37
0.088879	2.3705
0.059271	2.371
0.031966	2.3715
0.0092675	2.372
-0.0068515	2.3725
-0.011458	2.373
-0.015406	2.3735
-0.020669	2.374
-0.024617	2.3745
-0.022643	2.375
-0.016721	2.3755
-0.0061935	2.376
0.0017015	2.3765
0.0086095	2.377
0.018808	2.3775
0.026045	2.378
0.023084	2.3785
0.020452	2.379
0.022426	2.3795
0.026374	2.38
0.029993	2.3805
0.035256	2.381
0.044138	2.3815
0.051047	2.382
0.052692	2.3825
0.047099	2.383
0.044796	2.3835
0.060258	2.384
0.081312	2.3845
0.093484	2.385
0.08855	2.3855
0.079009	2.386
0.07572	2.3865
0.073088	2.387
0.051705	2.3875
0.026045	2.388
0.0089385	2.3885
0.0049915	2.389
0.0089385	2.3895
0.016505	2.39
0.013544	2.3905
-0.0042205	2.391
-0.0075095	2.3915
-0.0012595	2.392
-0.0025755	2.3925
-0.012445	2.393
-0.021985	2.3935
-0.021327	2.394
-0.014419	2.3945
-0.011787	2.395
-0.012774	2.3955
-0.016393	2.396
-0.022972	2.3965
-0.031196	2.397
-0.042052	2.3975
-0.053895	2.398
-0.057843	2.3985
-0.06212	2.399
-0.059488	2.3995
-0.043697	2.4
-0.028236	2.4005
-0.012116	2.401
0.0033465	2.4015
0.0082805	2.402
0.0076225	2.4025
0.0053205	2.403
-0.00027255	2.4035
-0.00060155	2.404
0.01815	2.4045
0.067495	2.405
0.15237	2.4055
0.26356	2.406
0.34087	2.4065
0.34975	2.407
0.31587	2.4075
0.27475	2.408
0.22507	2.4085
0.15763	2.409
0.07243	2.4095
-0.051922	2.41
-0.16311	2.4105
-0.17923	2.411
-0.14239	2.4115
-0.15226	2.412
-0.20029	2.4125
-0.21443	2.413
-0.19371	2.4135
-0.17298	2.414
-0.16246	2.4145
-0.16278	2.415
-0.17923	2.4155
-0.21443	2.416
-0.24174	2.4165
-0.2447	2.417
-0.22825	2.4175
-0.20292	2.418
-0.1743	2.4185
-0.15028	2.419
-0.13416	2.4195
-0.11739	2.42
-0.091727	2.4205
-0.065738	2.421
-0.044026	2.4215
-0.025933	2.422
-0.010471	2.4225
0.0033465	2.423
0.017821	2.4235
0.026045	2.424
0.029006	2.4245
0.033282	2.425
0.043151	2.4255
0.049073	2.426
0.051705	2.4265
0.05006	2.427
0.048415	2.4275
0.064206	2.428
0.11224	2.4285
0.18297	2.429
0.23593	2.4295
0.24744	2.43
0.26225	2.4305
0.27475	2.431
0.25764	2.4315
0.21619	2.432
0.18165	2.4325
0.15796	2.433
0.12408	2.4335
0.058942	2.434
-0.024617	2.4345
-0.09074	2.435
-0.13877	2.4355
-0.15489	2.436
-0.15949	2.4365
-0.16542	2.437
-0.16476	2.4375
-0.1516	2.438
-0.13811	2.4385
-0.13515	2.439
-0.13351	2.4395
-0.11739	2.44
-0.091398	2.4405
-0.070344	2.441
-0.056856	2.4415
-0.041394	2.442
-0.027249	2.4425
-0.015406	2.443
-0.0019175	2.4435
0.0089385	2.444
0.017492	2.4445
0.021768	2.445
0.030322	2.4455
0.039204	2.446
0.04677	2.4465
0.087234	2.447
0.1902	2.4475
0.29712	2.448
0.33232	2.4485
0.33594	2.449
0.34054	2.4495
0.32048	2.45
0.2833	2.4505
0.25337	2.451
0.21751	2.4515
0.16224	2.452
0.080654	2.4525
-0.0061935	2.453
-0.074621	2.4535
-0.13976	2.454
-0.21608	2.4545
-0.26937	2.455
-0.28878	2.4555
-0.30457	2.456
-0.32135	2.4565
-0.30687	2.457
-0.26509	2.4575
-0.24141	2.458
-0.2345	2.4585
-0.21937	2.459
-0.18483	2.4595
-0.14469	2.46
-0.11212	2.4605
-0.088108	2.461
-0.066396	2.4615
-0.046658	2.462
-0.02988	2.4625
-0.015077	2.463
-0.0075095	2.4635
-0.0042205	2.464
0.0023595	2.4645
0.0092675	2.465
0.022426	2.4655
0.029664	2.466
0.028677	2.4665
0.032624	2.467
0.043151	2.4675
0.05631	2.468
0.078351	2.4685
0.10072	2.469
0.11651	2.4695
0.12079	2.47
0.10895	2.4705
0.10006	2.471
0.10434	2.4715
0.10171	2.472
0.083944	2.4725
0.069798	2.473
0.058613	2.4735
0.044467	2.474
0.028348	2.4745
0.017163	2.475
0.0056495	2.4755
-0.0015885	2.476
-0.0055355	2.4765
-0.0075095	2.477
-0.011129	2.4775
-0.0071805	2.478
0.0066365	2.4785
0.012228	2.479
0.011241	2.4795
0.015518	2.48
0.0244	2.4805
0.02769	2.481
0.027361	2.4815
0.028019	2.482
0.024729	2.4825
0.022097	2.483
0.026374	2.4835
0.029335	2.484
0.018808	2.4845
0.0066365	2.485
0.011899	2.4855
0.023413	2.486
0.033611	2.4865
0.042494	2.487
0.046112	2.4875
0.046112	2.488
0.045783	2.4885
0.038875	2.489
0.019794	2.4895
-0.0035625	2.49
-0.021327	2.4905
-0.036131	2.491
-0.044355	2.4915
-0.039092	2.492
-0.030867	2.4925
-0.02988	2.493
-0.032512	2.4935
-0.036131	2.494
-0.038105	2.4945
-0.032183	2.495
-0.020669	2.4955
-0.013432	2.496
-0.0081675	2.4965
0.00038545	2.497
0.00038545	2.4975
-0.0052065	2.498
-0.0022465	2.4985
0.0040045	2.499
0.0066365	2.4995
0.013544	2.5
0.020123	2.5005
0.029006	2.501
0.045783	2.5015
0.051705	2.502
0.044796	2.5025
0.030651	2.503
0.0066365	2.5035
-0.0108	2.504
-0.0071805	2.5045
-0.0055355	2.505
-0.021985	2.5055
-0.035802	2.506
-0.028564	2.5065
-0.01705	2.507
-0.023959	2.5075
-0.038434	2.508
-0.040079	2.5085
-0.030538	2.509
-0.0071805	2.5095
0.011241	2.51
0.014531	2.5105
0.012557	2.511
0.0244	2.5115
0.049731	2.512
0.050389	2.5125
0.023413	2.513
-0.0088255	2.5135
-0.013432	2.514
0.0069655	2.5145
0.014531	2.515
-0.0052065	2.5155
-0.049948	2.516
-0.095017	2.5165
-0.1141	2.517
-0.10423	2.5175
-0.08449	2.518
-0.06837	2.5185
-0.055211	2.519
-0.047645	2.5195
-0.044684	2.52
-0.044355	2.5205
-0.045013	2.521
-0.018037	2.5215
0.042822	2.522
0.065851	2.5225
0.034927	2.523
0.0079515	2.5235
0.017821	2.524
0.035585	2.5245
0.051047	2.525
0.067824	2.5255
0.084273	2.526
0.091181	2.5265
0.10138	2.527
0.12441	2.5275
0.13395	2.528
0.11388	2.5285
0.069798	2.529
0.012228	2.5295
-0.038105	2.53
-0.072976	2.5305
-0.1016	2.531
-0.13252	2.5315
-0.14798	2.532
-0.13778	2.5325
-0.1312	2.533
-0.13745	2.5335
-0.1289	2.534
-0.097978	2.5345
-0.071331	2.535
-0.051264	2.5355
-0.019024	2.536
0.0092675	2.5365
0.011899	2.537
0.010912	2.5375
0.014531	2.538
0.015518	2.5385
0.0099255	2.539
-0.0048775	2.5395
-0.015406	2.54
-0.023959	2.5405
-0.038105	2.541
-0.045671	2.5415
-0.035144	2.542
-0.0068515	2.5425
0.013873	2.543
0.01486	2.5435
0.014531	2.544
0.025387	2.5445
0.038217	2.545
0.038875	2.5455
0.031966	2.546
0.032295	2.5465
0.033282	2.547
0.029006	2.5475
0.030322	2.548
0.028019	2.5485
0.023084	2.549
0.017492	2.5495
0.025058	2.55
0.048744	2.5505
0.084931	2.551
0.13263	2.5515
0.14842	2.552
0.13165	2.5525
0.13395	2.553
0.13954	2.5535
0.105	2.554
0.058284	2.5545
0.041178	2.555
0.046112	2.5555
0.028677	2.556
-0.012774	2.5565
-0.058501	2.557
-0.093372	2.5575
-0.11081	2.558
-0.10686	2.5585
-0.092714	2.559
-0.09403	2.5595
-0.095017	2.56
-0.075936	2.5605
-0.060475	2.561
-0.05554	2.5615
-0.046329	2.562
-0.027249	2.5625
-0.013103	2.563
-0.010142	2.5635
-0.0052065	2.564
0.0079515	2.5645
0.025387	2.565
0.047428	2.5655
0.064535	2.566
0.067166	2.5665
0.057626	2.567
0.050389	2.5675
0.049731	2.568
0.061903	2.5685
0.06289	2.569
0.04677	2.5695
0.037888	2.57
0.032953	2.5705
0.034598	2.571
0.038875	2.5715
0.014202	2.572
-0.014419	2.5725
-0.015406	2.573
-0.012116	2.5735
-0.014419	2.574
-0.0052065	2.5745
0.014202	2.575
0.020123	2.5755
-0.014419	2.576
-0.052579	2.5765
-0.058172	2.577
-0.051264	2.5775
-0.03975	2.578
-0.022643	2.5785
-0.013432	2.579
-0.026591	2.5795
-0.049619	2.58
-0.065738	2.5805
-0.076594	2.581
-0.090411	2.5815
-0.096004	2.582
-0.085806	2.5825
-0.07166	2.583
-0.064751	2.5835
-0.056856	2.584
-0.044355	2.5845
-0.028893	2.585
-0.0091545	2.5855
0.0013725	2.586
0.0092675	2.5865
0.02111	2.587
0.03394	2.5875
0.037559	2.588
0.028677	2.5885
0.019794	2.589
0.014531	2.5895
0.013544	2.59
0.01815	2.5905
0.017492	2.591
0.014531	2.5915
0.020452	2.592
0.033282	2.5925
0.048415	2.593
0.060587	2.5935
0.072101	2.594
0.075391	2.5945
0.067495	2.595
0.052692	2.5955
0.038875	2.596
0.029006	2.5965
0.023413	2.597
0.021768	2.5975
0.053021	2.598
0.082957	2.5985
0.072759	2.599
0.047099	2.5995
0.035256	2.6
0.028019	2.6005
0.010254	2.601
-0.026591	2.6015
-0.077252	2.602
-0.096991	2.6025
-0.061462	2.603
-0.0038915	2.6035
0.024729	2.604
0.022756	2.6045
0.015518	2.605
0.022097	2.6055
0.035914	2.606
0.028348	2.6065
-0.0061935	2.607
-0.040079	2.6075
-0.062778	2.608
-0.078568	2.6085
-0.094359	2.609
-0.097649	2.6095
-0.089753	2.61
-0.080542	2.6105
-0.069357	2.611
-0.048961	2.6115
-0.019682	2.612
0.012886	2.6125
0.04348	2.613
0.074733	2.6135
0.11816	2.614
0.15829	2.6145
0.17277	2.615
0.17671	2.6155
0.16849	2.616
0.13132	2.6165
0.092168	2.617
0.067824	2.6175
0.042165	2.618
0.01157	2.6185
-0.032183	2.619
-0.094688	2.6195
-0.16246	2.62
-0.19733	2.6205
-0.18417	2.621
-0.15456	2.6215
-0.14107	2.622
-0.12824	2.6225
-0.10324	2.623
-0.084161	2.6235
-0.077581	2.624
-0.071331	2.6245
-0.054224	2.625
-0.036131	2.6255
-0.025604	2.626
-0.022314	2.6265
-0.022314	2.627
-0.026262	2.6275
-0.025604	2.628
-0.022972	2.6285
-0.021327	2.629
-0.018037	2.6295
-0.011458	2.63
0.0056495	2.6305
0.0244	2.631
0.035585	2.6315
0.039204	2.632
0.048415	2.6325
0.067824	2.633
0.095129	2.6335
0.15467	2.634
0.25008	2.6345
0.32278	2.635
0.33561	2.6355
0.31061	2.636
0.27837	2.6365
0.23988	2.637
0.20007	2.6375
0.15369	2.638
0.090523	2.6385
0.0020305	2.639
-0.1016	2.6395
-0.18088	2.64
-0.20917	2.6405
-0.20555	2.641
-0.20752	2.6415
-0.20917	2.642
-0.19502	2.6425
-0.17627	2.643
-0.17265	2.6435
-0.17627	2.644
-0.16706	2.6445
-0.16443	2.645
-0.17364	2.6455
-0.16607	2.646
-0.14173	2.6465
-0.11048	2.647
-0.079884	2.6475
-0.059488	2.648
-0.045013	2.6485
-0.023959	2.649
0.0020305	2.6495
0.018479	2.65
0.022097	2.6505
0.016834	2.651
0.01157	2.6515
0.0092675	2.652
0.01157	2.6525
0.016834	2.653
0.034598	2.6535
0.044796	2.654
0.035585	2.6545
0.022756	2.655
0.019465	2.6555
0.010912	2.656
0.0026885	2.6565
0.0069655	2.657
0.015847	2.6575
0.032953	2.658
0.043809	2.6585
0.035256	2.659
0.022426	2.6595
0.018479	2.66
0.023084	2.6605
0.023742	2.661
0.022756	2.6615
0.020123	2.662
0.021768	2.6625
0.034598	2.663
0.054008	2.6635
0.052363	2.664
0.03723	2.6645
0.029335	2.665
0.032953	2.6655
0.037888	2.666
0.039862	2.6665
0.038875	2.667
0.043809	2.6675
0.049731	2.668
0.044796	2.6685
0.034598	2.669
0.038217	2.6695
0.039862	2.67
0.026374	2.6705
0.025716	2.671
0.034927	2.6715
0.033611	2.672
0.023742	2.6725
0.024071	2.673
0.031308	2.6735
0.026703	2.674
0.0092675	2.6745
0.00038545	2.675
5.65E-05	2.6755
-0.0045495	2.676
-0.011458	2.6765
0.043809	2.677
0.12803	2.6775
0.13494	2.678
0.09151	2.6785
0.075062	2.679
0.086576	2.6795
0.079009	2.68
0.028677	2.6805
-0.039092	2.681
-0.095675	2.6815
-0.1141	2.682
-0.10423	2.6825
-0.086135	2.683
-0.076594	2.6835
-0.078568	2.684
-0.086135	2.6845
-0.081858	2.685
-0.044684	2.6855
-0.00093055	2.686
0.01815	2.6865
0.020123	2.687
0.04348	2.6875
0.090194	2.688
0.1198	2.6885
0.11026	2.689
0.099735	2.6895
0.10599	2.69
0.084602	2.6905
0.021768	2.691
-0.045671	2.6915
-0.10192	2.692
-0.15259	2.6925
-0.1789	2.693
-0.16936	2.6935
-0.14864	2.694
-0.13647	2.6945
-0.12989	2.695
-0.11837	2.6955
-0.095675	2.696
-0.068699	2.6965
-0.054224	2.697
-0.052579	2.6975
-0.039421	2.698
-0.022643	2.6985
-0.018695	2.699
-0.016064	2.6995
-0.0075095	2.7
-0.00093055	2.7005
0.010912	2.701
0.027032	2.7015
0.035585	2.702
0.033282	2.7025
0.041507	2.703
0.060587	2.7035
0.07868	2.704
0.098419	2.7045
0.11158	2.705
0.095787	2.7055
0.064864	2.706
0.042494	2.7065
0.027361	2.707
0.0099255	2.7075
0.0013725	2.708
0.012228	2.7085
0.024729	2.709
0.029993	2.7095
0.049402	2.71
0.086576	2.7105
0.10763	2.711
0.095458	2.7115
0.068811	2.712
0.043809	2.7125
0.033282	2.713
0.039533	2.7135
0.049731	2.714
0.038217	2.7145
0.00038545	2.715
-0.045342	2.7155
-0.092385	2.716
-0.11311	2.7165
-0.098307	2.717
-0.082516	2.7175
-0.084819	2.718
-0.090082	2.7185
-0.089095	2.719
-0.076923	2.7195
-0.067054	2.72
-0.067712	2.7205
-0.066396	2.721
-0.069357	2.7215
-0.073634	2.722
-0.066067	2.7225
-0.053237	2.723
-0.047316	2.7235
-0.036789	2.724
-0.027578	2.7245
-0.031525	2.725
-0.028236	2.7255
-0.0035625	2.726
0.01815	2.7265
0.019465	2.727
0.019465	2.7275
0.028677	2.728
0.029993	2.7285
0.025058	2.729
0.035256	2.7295
0.04677	2.73
0.037559	2.7305
0.027032	2.731
0.033611	2.7315
0.040849	2.732
0.045454	2.7325
0.071443	2.733
0.12868	2.7335
0.21488	2.734
0.30797	2.7345
0.39943	2.735
0.44581	2.7355
0.45437	2.736
0.44187	2.7365
0.39417	2.737
0.32673	2.7375
0.23264	2.738
0.11388	2.7385
-0.02692	2.739
-0.16015	2.7395
-0.24799	2.74
-0.30753	2.7405
-0.38978	2.741
-0.45162	2.7415
-0.47235	2.742
-0.47761	2.7425
-0.4582	2.743
-0.39274	2.7435
-0.30753	2.744
-0.23812	2.7445
-0.19009	2.745
-0.15094	2.7455
-0.11903	2.746
-0.096333	2.7465
-0.093043	2.747
-0.088766	2.7475
-0.076923	2.748
-0.063107	2.7485
-0.038434	2.749
-0.00093055	2.7495
0.023084	2.75
0.028677	2.7505
0.034598	2.751
0.04348	2.7515
0.045783	2.752
0.039862	2.7525
0.028019	2.753
0.02111	2.7535
0.022426	2.754
0.022426	2.7545
0.015518	2.755
0.015518	2.7555
0.020123	2.756
0.032624	2.7565
0.03723	2.757
0.02111	2.7575
0.0040045	2.758
0.0033465	2.7585
0.0076225	2.759
0.013544	2.7595
0.02769	2.76
0.037559	2.7605
0.028677	2.761
0.028019	2.7615
0.040849	2.762
0.047428	2.7625
0.047099	2.763
0.053021	2.7635
0.072101	2.764
0.086905	2.7645
0.085918	2.765
0.089208	2.7655
0.0948	2.766
0.080325	2.7665
0.070785	2.767
0.082628	2.7675
0.08197	2.768
0.054665	2.7685
0.02769	2.769
0.018808	2.7695
0.01815	2.77
0.017821	2.7705
0.015847	2.771
0.013215	2.7715
0.0079515	2.772
0.0033465	2.7725
0.0026885	2.773
0.0079515	2.7735
0.018808	2.774
0.025387	2.7745
0.025058	2.775
0.021439	2.7755
0.020123	2.776
0.020123	2.7765
0.01815	2.777
0.019794	2.7775
0.019465	2.778
0.017821	2.7785
0.016834	2.779
0.017821	2.7795
0.020123	2.78
0.020452	2.7805
0.012886	2.781
0.00038545	2.7815
-0.0098125	2.782
-0.02034	2.7825
-0.028236	2.783
-0.021985	2.7835
-0.0091545	2.784
-0.0035625	2.7845
-0.0055355	2.785
-0.0088255	2.7855
-0.0108	2.786
-0.0098125	2.7865
0.0010435	2.787
0.026045	2.7875
0.036243	2.788
0.031308	2.7885
0.028677	2.789
0.032295	2.7895
0.042165	2.79
0.047428	2.7905
0.047428	2.791
0.044796	2.7915
0.036243	2.792
0.024729	2.7925
0.012557	2.793
0.0040045	2.7935
0.0092675	2.794
0.014202	2.7945
0.0049915	2.795
-0.0055355	2.7955
-0.014748	2.796
-0.032512	2.7965
-0.056198	2.797
-0.070015	2.7975
-0.080213	2.798
-0.087451	2.7985
-0.076923	2.799
-0.057843	2.7995
-0.046658	2.8
-0.041065	2.8005
-0.035144	2.801
-0.028564	2.8015
-0.018695	2.802
-0.0061935	2.8025
0.0049915	2.803
0.0059785	2.8035
0.0023595	2.804
0.0053205	2.8045
0.0076225	2.805
-0.0019175	2.8055
-0.019024	2.806
-0.023301	2.8065
-0.0071805	2.807
0.0066365	2.8075
-0.0045495	2.808
-0.02692	2.8085
-0.032512	2.809
-0.024617	2.8095
-0.014748	2.81
-0.0068515	2.8105
0.0036755	2.811
0.021768	2.8115
0.037888	2.812
0.035256	2.8125
0.0095965	2.813
-0.019353	2.8135
-0.028564	2.814
-0.0094835	2.8145
0.0076225	2.815
-0.00027255	2.8155
-0.020998	2.816
-0.032183	2.8165
-0.022972	2.817
-0.0022465	2.8175
0.038875	2.818
0.10204	2.8185
0.13921	2.819
0.13921	2.8195
0.15928	2.82
0.21652	2.8205
0.2504	2.821
0.24185	2.8215
0.21586	2.822
0.16816	2.8225
0.1073	2.823
0.053679	2.8235
0.0099255	2.824
-0.034157	2.8245
-0.086135	2.825
-0.13219	2.8255
-0.1766	2.826
-0.22661	2.8265
-0.23845	2.827
-0.18417	2.8275
-0.1312	2.828
-0.12068	2.8285
-0.13449	2.829
-0.12199	2.8295
-0.10653	2.83
-0.11212	2.8305
-0.12232	2.831
-0.13449	2.8315
-0.15127	2.832
-0.16048	2.8325
-0.15094	2.833
-0.12923	2.8335
-0.10554	2.834
-0.085806	2.8345
-0.063436	2.835
-0.045342	2.8355
-0.02363	2.836
-0.0015885	2.8365
0.014202	2.837
0.022097	2.8375
0.035585	2.838
0.070785	2.8385
0.097103	2.839
0.092497	2.8395
0.10631	2.84
0.13822	2.8405
0.13987	2.841
0.12309	2.8415
0.12737	2.842
0.12836	2.8425
0.12211	2.843
0.12441	2.8435
0.12342	2.844
0.1175	2.8445
0.11059	2.845
0.1152	2.8455
0.11289	2.846
0.085918	2.8465
0.042165	2.847
-0.0061935	2.8475
-0.044355	2.848
-0.077581	2.8485
-0.1085	2.849
-0.13712	2.8495
-0.15719	2.85
-0.15357	2.8505
-0.13482	2.851
-0.13186	2.8515
-0.13087	2.852
-0.11245	2.8525
-0.090411	2.853
-0.078897	2.8535
-0.061133	2.854
-0.028893	2.8545
-0.0025755	2.855
0.0049915	2.8555
0.0082805	2.856
0.021439	2.8565
0.027361	2.857
0.018479	2.8575
0.016176	2.858
0.029664	2.8585
0.035256	2.859
0.031308	2.8595
0.034927	2.86
0.043809	2.8605
0.039533	2.861
0.024729	2.8615
0.014531	2.862
0.014531	2.8625
0.015189	2.863
0.016505	2.8635
0.024071	2.864
0.034598	2.8645
0.041836	2.865
0.041836	2.8655
0.034269	2.866
0.0244	2.8665
0.025058	2.867
0.027361	2.8675
0.023413	2.868
0.023742	2.8685
0.035585	2.869
0.044796	2.8695
0.040849	2.87
0.033282	2.8705
0.030651	2.871
0.027361	2.8715
0.023742	2.872
0.028348	2.8725
0.031637	2.873
0.023413	2.8735
0.01486	2.874
0.015847	2.8745
0.015518	2.875
0.010583	2.8755
0.0089385	2.876
0.0082805	2.8765
0.0030175	2.877
-0.00027255	2.8775
0.0036755	2.878
0.015518	2.8785
0.027361	2.879
0.032295	2.8795
0.031308	2.88
0.019794	2.8805
0.0059785	2.881
-0.00027255	2.8815
-0.0048775	2.882
-0.011129	2.8825
-0.020669	2.883
-0.035802	2.8835
-0.03975	2.884
-0.011787	2.8845
0.029993	2.885
0.051376	2.8855
0.04677	2.886
0.043151	2.8865
0.053679	2.887
0.066837	2.8875
0.068153	2.888
0.053021	2.8885
0.038217	2.889
0.052363	2.8895
0.061574	2.89
0.027032	2.8905
-0.02363	2.891
-0.053566	2.8915
-0.06212	2.892
-0.06212	2.8925
-0.068041	2.893
-0.1016	2.8935
-0.13844	2.894
-0.14074	2.8945
-0.10258	2.895
-0.058172	2.8955
-0.043039	2.896
-0.050935	2.8965
-0.064422	2.897
-0.065409	2.8975
-0.035144	2.898
0.0020305	2.8985
0.010912	2.899
-0.0025755	2.8995
-0.0084965	2.9
-0.0019175	2.9005
0.0036755	2.901
-0.0045495	2.9015
-0.013432	2.902
-0.019353	2.9025
-0.032841	2.903
-0.031854	2.9035
-0.00027255	2.904
0.035256	2.9045
0.054337	2.905
0.051376	2.9055
0.030651	2.906
0.0056495	2.9065
-0.011458	2.907
-0.023301	2.9075
-0.034486	2.908
-0.035802	2.9085
-0.019682	2.909
-0.0038915	2.9095
0.0017015	2.91
0.0010435	2.9105
-0.0081675	2.911
-0.021327	2.9115
-0.025604	2.912
-0.015735	2.9125
-0.016721	2.913
-0.025275	2.9135
-0.033499	2.914
-0.036789	2.9145
-0.023301	2.915
-0.0081675	2.9155
-0.0048775	2.916
0.00038545	2.9165
0.0053205	2.917
0.00038545	2.9175
-0.0068515	2.918
-0.00093055	2.9185
0.010583	2.919
0.010912	2.9195
0.0010435	2.92
-0.0065225	2.9205
-0.0032335	2.921
0.0086095	2.9215
0.0082805	2.922
-0.0012595	2.9225
0.0079515	2.923
0.029335	2.9235
0.039204	2.924
0.031966	2.9245
0.031966	2.925
0.041507	2.9255
0.062232	2.926
0.089208	2.9265
0.091839	2.927
0.074733	2.9275
0.063219	2.928
0.066837	2.9285
0.091839	2.929
0.11717	2.9295
0.10138	2.93
0.055981	2.9305
0.013215	2.931
-0.01705	2.9315
-0.044684	2.932
-0.065409	2.9325
-0.078239	2.933
-0.082187	2.9335
-0.085148	2.934
-0.091069	2.9345
-0.079226	2.935
-0.049619	2.9355
-0.025933	2.936
0.013873	2.9365
0.10664	2.937
0.18264	2.9375
0.20402	2.938
0.19316	2.9385
0.18428	2.939
0.17408	2.9395
0.16158	2.94
0.1277	2.9405
0.052692	2.941
-0.012774	2.9415
-0.050606	2.942
-0.089424	2.9425
-0.15127	2.943
-0.22858	2.9435
-0.27529	2.944
-0.27135	2.9445
-0.24075	2.945
-0.21114	2.9455
-0.18943	2.946
-0.16443	2.9465
-0.14074	2.947
-0.11936	2.9475
-0.09732	2.948
-0.078239	2.9485
-0.064093	2.949
-0.049619	2.9495
-0.030867	2.95
-0.012116	2.9505
0.00071445	2.951
0.0082805	2.9515
0.017492	2.952
0.026374	2.9525
0.028019	2.953
0.019465	2.9535
0.01157	2.954
0.0076225	2.9545
0.0023595	2.955
-0.0025755	2.9555
0.0040045	2.956
0.015847	2.9565
0.026045	2.957
0.029993	2.9575
0.029006	2.958
0.042822	2.9585
0.091181	2.959
0.14678	2.9595
0.1629	2.96
0.16487	2.9605
0.20237	2.961
0.23067	2.9615
0.21422	2.962
0.18395	2.9625
0.15763	2.963
0.12836	2.9635
0.079009	2.964
0.0086095	2.9645
-0.065409	2.965
-0.13022	2.9655
-0.15982	2.966
-0.14897	2.9665
-0.14206	2.967
-0.13647	2.9675
-0.10916	2.968
-0.076923	2.9685
-0.063107	2.969
-0.057843	2.9695
-0.041723	2.97
-0.025604	2.9705
-0.012116	2.971
0.021439	2.9715
0.069469	2.972
0.089537	2.9725
0.081641	2.973
0.074075	2.9735
0.074733	2.974
0.071772	2.9745
0.058284	2.975
0.043809	2.9755
0.028677	2.976
0.0086095	2.9765
-0.021656	2.977
-0.061462	2.9775
-0.086135	2.978
-0.09074	2.9785
-0.085477	2.979
-0.079884	2.9795
-0.069686	2.98
-0.055211	2.9805
-0.044355	2.981
-0.03317	2.9815
-0.022643	2.982
-0.01705	2.9825
-0.010142	2.983
-0.0032335	2.9835
-0.0055355	2.984
-0.013761	2.9845
-0.012774	2.985
-0.00027255	2.9855
0.012228	2.986
0.017492	2.9865
0.016834	2.987
0.017821	2.9875
0.020452	2.988
0.015518	2.9885
-0.00060155	2.989
-0.011458	2.9895
-0.00027255	2.99
0.0095965	2.9905
0.00038545	2.991
-0.0038915	2.9915
0.016505	2.992
0.034269	2.9925
0.042165	2.993
0.053021	2.9935
0.068482	2.994
0.065851	2.9945
0.052363	2.995
0.036901	2.9955
0.027032	2.996
0.013544	2.9965
-0.0078385	2.997
-0.023959	2.9975
-0.026591	2.998
-0.012774	2.9985
0.0017015	2.999
-0.0015885	2.9995
-0.016064	3
-0.0038915	3.0005
0.034269	3.001
0.05335	3.0015
0.045125	3.002
0.051705	3.0025
0.098419	3.003
0.13494	3.0035
0.12934	3.004
0.11618	3.0045
0.12934	3.005
0.14217	3.0055
0.12145	3.006
0.084602	3.0065
0.044467	3.007
0.014202	3.0075
0.0017015	3.008
-0.016064	3.0085
-0.052908	3.009
-0.087122	3.0095
-0.11212	3.01
-0.12956	3.0105
-0.14107	3.011
-0.15785	3.0115
-0.17331	3.012
-0.1641	3.0125
-0.12857	3.013
-0.094359	3.0135
-0.081529	3.014
-0.071989	3.0145
-0.063107	3.015
-0.050277	3.0155
-0.022643	3.016
0.011899	3.0165
0.018479	3.017
0.012228	3.0175
0.026374	3.018
0.045125	3.0185
0.041836	3.019
0.014531	3.0195
-0.021327	3.02
-0.056198	3.0205
-0.082516	3.021
-0.070015	3.0215
-0.038434	3.022
-0.032841	3.0225
-0.044026	3.023
-0.046	3.0235
-0.041723	3.024
-0.044355	3.0245
-0.041723	3.025
-0.024617	3.0255
-0.0038915	3.026
0.012557	3.0265
0.037888	3.027
0.058942	3.0275
0.060916	3.028
0.068482	3.0285
0.10796	3.029
0.17079	3.0295
0.20928	3.03
0.24021	3.0305
0.26258	3.031
0.23757	3.0315
0.19218	3.032
0.16586	3.0325
0.13592	3.033
0.087892	3.0335
0.032624	3.034
-0.034815	3.0345
-0.096991	3.035
-0.13581	3.0355
-0.15588	3.036
-0.17594	3.0365
-0.19963	3.037
-0.19601	3.0375
-0.17298	3.038
-0.15884	3.0385
-0.16278	3.039
-0.15226	3.0395
-0.12462	3.04
-0.10291	3.0405
-0.092056	3.041
-0.075936	3.0415
-0.057514	3.042
-0.053895	3.0425
-0.053566	3.043
-0.03975	3.0435
-0.012774	3.044
0.0082805	3.0445
0.021439	3.045
0.042165	3.0455
0.0948	3.046
0.15895	3.0465
0.19876	3.047
0.20665	3.0475
0.18658	3.048
0.16783	3.0485
0.15928	3.049
0.14546	3.0495
0.10697	3.05
0.060587	3.0505
0.025716	3.051
0.0026885	3.0515
-0.026591	3.052
-0.092714	3.0525
-0.15588	3.053
-0.17496	3.0535
-0.16772	3.054
-0.15917	3.0545
-0.14667	3.055
-0.11936	3.0555
-0.078897	3.056
-0.04929	3.0565
-0.037118	3.057
-0.029222	3.0575
-0.022643	3.058
-0.02034	3.0585
-0.020998	3.059
-0.01705	3.0595
-0.0108	3.06
-0.0035625	3.0605
5.65E-05	3.061
0.0026885	3.0615
0.0092675	3.062
0.017821	3.0625
0.020123	3.063
0.01815	3.0635
0.019465	3.064
0.022756	3.0645
0.026045	3.065
0.030979	3.0655
0.036243	3.066
0.036901	3.0665
0.033282	3.067
0.033282	3.0675
0.044467	3.068
0.053679	3.0685
0.054008	3.069
0.054008	3.0695
0.053679	3.07
0.051047	3.0705
0.047757	3.071
0.04348	3.0715
0.031637	3.072
0.019136	3.0725
0.0063075	3.073
0.0010435	3.0735
0.0046625	3.074
0.0089385	3.0745
0.0066365	3.075
0.0026885	3.0755
0.0046625	3.076
0.010254	3.0765
0.01157	3.077
0.0072935	3.0775
0.0046625	3.078
0.0063075	3.0785
0.013873	3.079
0.017821	3.0795
0.026374	3.08
0.04348	3.0805
0.055981	3.081
0.05335	3.0815
0.039862	3.082
0.030651	3.0825
0.030322	3.083
0.036243	3.0835
0.042822	3.084
0.062232	3.0845
0.080325	3.085
0.067824	3.0855
0.038546	3.086
0.029335	3.0865
0.04348	3.087
0.054994	3.0875
0.055652	3.088
0.030322	3.0885
-0.021985	3.089
-0.074621	3.0895
-0.10785	3.09
-0.11574	3.0905
-0.11837	3.091
-0.11772	3.0915
-0.11607	3.092
-0.1164	3.0925
-0.1085	3.093
-0.074621	3.0935
-0.035473	3.094
-0.015735	3.0945
-0.023959	3.095
-0.045013	3.0955
-0.050277	3.096
-0.037118	3.0965
-0.014419	3.097
0.00071445	3.0975
-0.0058645	3.098
-0.02034	3.0985
-0.027249	3.099
-0.025275	3.0995
-0.016064	3.1
-0.015077	3.1005
-0.022314	3.101
-0.031196	3.1015
-0.027578	3.102
-0.013432	3.1025
-0.0038915	3.103
-0.0048775	3.1035
-0.0038915	3.104
0.0053205	3.1045
0.0244	3.105
0.055323	3.1055
0.071772	3.106
0.06618	3.1065
0.074404	3.107
0.11421	3.1075
0.17639	3.108
0.2458	3.1085
0.25731	3.109
0.20007	3.1095
0.1448	3.11
0.10928	3.1105
0.078023	3.111
0.026703	3.1115
-0.051593	3.112
-0.14305	3.1125
-0.21049	3.113
-0.23022	3.1135
-0.21476	3.114
-0.20095	3.1145
-0.19798	3.115
-0.18779	3.1155
-0.16476	3.116
-0.13318	3.1165
-0.095675	3.117
-0.070673	3.1175
-0.065409	3.118
-0.06837	3.1185
-0.062778	3.119
-0.048303	3.1195
-0.042381	3.12
-0.042381	3.1205
-0.025275	3.121
-0.0075095	3.1215
-0.0025755	3.122
0.00038545	3.1225
0.0053205	3.123
0.0033465	3.1235
-0.0038915	3.124
-0.0081675	3.1245
-0.0045495	3.125
0.011241	3.1255
0.044796	3.126
0.077365	3.1265
0.089208	3.127
0.090523	3.1275
0.10171	3.128
0.11849	3.1285
0.12605	3.129
0.12079	3.1295
0.11026	3.13
0.094471	3.1305
0.069798	3.131
0.048415	3.1315
0.040849	3.132
0.042165	3.1325
0.038875	3.133
0.025716	3.1335
0.029993	3.134
0.05631	3.1345
0.077365	3.135
0.078351	3.1355
0.063219	3.136
0.045783	3.1365
0.050389	3.137
0.050389	3.1375
0.03394	3.138
0.013544	3.1385
-0.0038915	3.139
-0.020669	3.1395
-0.037118	3.14
-0.04929	3.1405
-0.054224	3.141
-0.06508	3.1415
-0.084819	3.142
-0.096333	3.1425
-0.095675	3.143
-0.092056	3.1435
-0.088766	3.144
-0.074621	3.1445
-0.053895	3.145
-0.043697	3.1455
-0.041394	3.146
-0.031525	3.1465
-0.012774	3.147
-0.00027255	3.1475
0.00071445	3.148
0.0010435	3.1485
0.0030175	3.149
-0.0035625	3.1495
-0.017379	3.15
-0.020998	3.1505
-0.016721	3.151
-0.011787	3.1515
-0.0055355	3.152
0.016834	3.1525
0.065522	3.153
0.093484	3.1535
0.087892	3.154
0.088879	3.1545
0.11191	3.155
0.14382	3.1555
0.17737	3.156
0.1902	3.1565
0.16454	3.157
0.10105	3.1575
0.030979	3.158
-0.0055355	3.1585
-0.0065225	3.159
-0.0048775	3.1595
-0.022972	3.16
-0.063765	3.1605
-0.11245	3.161
-0.1493	3.1615
-0.16048	3.162
-0.15357	3.1625
-0.14699	3.163
-0.14041	3.1635
-0.12594	3.164
-0.10225	3.1645
-0.07495	3.165
-0.051593	3.1655
-0.032841	3.166
-0.012445	3.1665
0.0036755	3.167
0.0053205	3.1675
-0.0022465	3.168
0.00071445	3.1685
0.019465	3.169
0.035256	3.1695
0.041178	3.17
0.044467	3.1705
0.041507	3.171
0.031966	3.1715
0.01815	3.172
0.010912	3.1725
-0.00093055	3.173
-0.018366	3.1735
-0.028564	3.174
-0.014419	3.1745
0.039204	3.175
0.11355	3.1755
0.17803	3.176
0.23659	3.1765
0.2912	3.177
0.32377	3.1775
0.31751	3.178
0.30436	3.1785
0.32311	3.179
0.29778	3.1795
0.20139	3.18
0.067824	3.1805
-0.034157	3.181
-0.098636	3.1815
-0.17858	3.182
-0.29108	3.1825
-0.37958	3.183
-0.39734	3.1835
-0.36412	3.184
-0.31477	3.1845
-0.28056	3.185
-0.27595	3.1855
-0.27266	3.186
-0.24042	3.1865
-0.19502	3.187
-0.15884	3.1875
-0.13153	3.188
-0.1062	3.1885
-0.077581	3.189
-0.057843	3.1895
-0.046987	3.19
-0.03317	3.1905
-0.01409	3.191
-0.0015885	3.1915
0.0053205	3.192
0.014202	3.1925
0.021768	3.193
0.026703	3.1935
0.029664	3.194
0.032295	3.1945
0.037888	3.195
0.043151	3.1955
0.050718	3.196
0.059929	3.1965
0.065522	3.197
0.066837	3.1975
0.073088	3.198
0.083944	3.1985
0.089866	3.199
0.093813	3.1995
0.095129	3.2
0.095787	3.2005
0.093813	3.201
0.092168	3.2015
0.0948	3.202
0.10664	3.2025
0.11882	3.203
0.12638	3.2035
0.13066	3.204
0.13165	3.2045
0.12934	3.205
0.14777	3.2055
0.15731	3.206
0.12309	3.2065
0.084273	3.207
0.059271	3.2075
0.03394	3.208
0.0013725	3.2085
-0.018695	3.209
-0.030867	3.2095
-0.052908	3.21
-0.092056	3.2105
-0.12956	3.211
-0.16048	3.2115
-0.1641	3.212
-0.14699	3.2125
-0.13022	3.213
-0.10982	3.2135
-0.078568	3.214
-0.056527	3.2145
-0.041723	3.215
-0.032841	3.2155
-0.042052	3.216
-0.056527	3.2165
-0.05225	3.217
-0.040407	3.2175
-0.040079	3.218
-0.048961	3.2185
-0.050606	3.219
-0.037447	3.2195
-0.020669	3.22
-0.015077	3.2205
-0.0065225	3.221
0.0063075	3.2215
0.017163	3.222
0.024071	3.2225
0.029993	3.223
0.032953	3.2235
0.030651	3.224
0.025716	3.2245
0.022426	3.225
0.016505	3.2255
0.013544	3.226
0.02111	3.2265
0.024729	3.227
0.015189	3.2275
0.0095965	3.228
0.021768	3.2285
0.047757	3.229
0.063548	3.2295
0.052692	3.23
0.039204	3.2305
0.039533	3.231
0.049073	3.2315
0.048744	3.232
0.036243	3.2325
0.030322	3.233
0.028348	3.2335
0.011899	3.234
-0.0075095	3.2345
-0.018695	3.235
-0.023301	3.2355
-0.0108	3.236
0.0079515	3.2365
0.01157	3.237
0.010912	3.2375
0.016176	3.238
0.024071	3.2385
0.030322	3.239
0.028348	3.2395
0.023742	3.24
0.025387	3.2405
0.027361	3.241
0.025058	3.2415
0.020452	3.242
0.0056495	3.2425
-0.0052065	3.243
-0.0078385	3.2435
-0.0042205	3.244
-0.00027255	3.2445
0.0026885	3.245
0.0056495	3.2455
0.0089385	3.246
0.0043335	3.2465
-0.012774	3.247
-0.040079	3.2475
-0.060475	3.248
-0.063436	3.2485
-0.059159	3.249
-0.055869	3.2495
-0.049619	3.25
-0.04271	3.2505
-0.040079	3.251
-0.038434	3.2515
-0.037118	3.252
-0.030867	3.2525
-0.020011	3.253
-0.010471	3.2535
0.00071445	3.254
0.0053205	3.2545
0.0013725	3.255
0.0066365	3.2555
0.057297	3.256
0.16125	3.2565
0.2481	3.257
0.25534	3.2575
0.21718	3.258
0.20402	3.2585
0.23428	3.259
0.29087	3.2595
0.3208	3.26
0.30436	3.2605
0.26916	3.261
0.21849	3.2615
0.17046	3.262
0.14053	3.2625
0.10335	3.263
0.016505	3.2635
-0.11212	3.264
-0.23647	3.2645
-0.32168	3.265
-0.37991	3.2655
-0.42859	3.266
-0.44735	3.2665
-0.43912	3.267
-0.42399	3.2675
-0.40491	3.268
-0.35721	3.2685
-0.28845	3.269
-0.22496	3.2695
-0.1891	3.27
-0.16838	3.2705
-0.14963	3.271
-0.12429	3.2715
-0.095017	3.272
-0.07495	3.2725
-0.057843	3.273
-0.041394	3.2735
-0.027578	3.274
-0.017379	3.2745
-0.0071805	3.275
0.0053205	3.2755
0.015518	3.276
0.027361	3.2765
0.054008	3.277
0.08855	3.2775
0.10697	3.278
0.10928	3.2785
0.11322	3.279
0.12243	3.2795
0.13033	3.28
0.12441	3.2805
0.11553	3.281
0.11585	3.2815
0.1175	3.282
0.11585	3.2825
0.11289	3.283
0.11026	3.2835
0.091839	3.284
0.057626	3.2845
0.026374	3.285
0.0043335	3.2855
-0.014748	3.286
-0.027578	3.2865
-0.028564	3.287
-0.018366	3.2875
-0.0075095	3.288
-0.00060155	3.2885
0.0017015	3.289
0.0056495	3.2895
0.016176	3.29
0.0244	3.2905
0.02769	3.291
0.031308	3.2915
0.032295	3.292
0.031308	3.2925
0.028677	3.293
0.023084	3.2935
0.029993	3.294
0.050389	3.2945
0.052692	3.295
0.039204	3.2955
0.044796	3.296
0.092497	3.2965
0.15895	3.297
0.19481	3.2975
0.18362	3.298
0.14974	3.2985
0.12474	3.299
0.10105	3.2995
0.063548	3.3
0.020123	3.3005
-0.033499	3.301
-0.092056	3.3015
-0.13219	3.302
-0.14009	3.3025
-0.13285	3.303
-0.12232	3.3035
-0.11245	3.304
-0.10028	3.3045
-0.08449	3.305
-0.070344	3.3055
-0.063436	3.306
-0.059817	3.3065
-0.053237	3.307
-0.043368	3.3075
-0.031854	3.308
-0.018695	3.3085
-0.013761	3.309
-0.017379	3.3095
-0.016064	3.31
-0.012774	3.3105
-0.011458	3.311
-0.0075095	3.3115
0.0056495	3.312
0.013873	3.3125
0.0076225	3.313
0.0023595	3.3135
0.010912	3.314
0.023084	3.3145
0.028019	3.315
0.0244	3.3155
0.019136	3.316
0.014531	3.3165
0.012557	3.317
0.0089385	3.3175
0.0026885	3.318
0.0013725	3.3185
0.0036755	3.319
0.0046625	3.3195
0.0053205	3.32
0.0049915	3.3205
0.0043335	3.321
0.0053205	3.3215
0.0089385	3.322
0.020781	3.3225
0.039862	3.323
0.053021	3.3235
0.061245	3.324
0.06289	3.3245
0.049731	3.325
0.037888	3.3255
0.039862	3.326
0.042165	3.3265
0.03723	3.327
0.021439	3.3275
-0.0094835	3.328
-0.050277	3.3285
-0.079226	3.329
-0.080542	3.3295
-0.066725	3.33
-0.058172	3.3305
-0.051264	3.331
-0.046	3.3315
-0.040407	3.332
-0.033499	3.3325
-0.028893	3.333
-0.030538	3.3335
-0.031196	3.334
-0.02692	3.3345
-0.017379	3.335
-0.0048775	3.3355
0.0089385	3.336
0.016176	3.3365
0.012557	3.337
0.0017015	3.3375
-0.0012595	3.338
0.0076225	3.3385
0.057626	3.339
0.13329	3.3395
0.15928	3.34
0.1448	3.3405
0.1277	3.341
0.13	3.3415
0.14283	3.342
0.13526	3.3425
0.073417	3.343
-0.0061935	3.3435
-0.038763	3.344
-0.024946	3.3445
-0.018695	3.345
-0.039421	3.3455
-0.05883	3.346
-0.070673	3.3465
-0.079555	3.347
-0.089424	3.3475
-0.1016	3.348
-0.11048	3.3485
-0.10785	3.349
-0.10061	3.3495
-0.10324	3.35
-0.11146	3.3505
-0.11574	3.351
-0.11541	3.3515
-0.11311	3.352
-0.10192	3.3525
-0.078897	3.353
-0.053566	3.3535
-0.031196	3.354
-0.016064	3.3545
-0.0094835	3.355
-0.0048775	3.3555
0.0023595	3.356
0.0053205	3.3565
-0.0055355	3.357
-0.012774	3.3575
0.018479	3.358
0.055323	3.3585
0.060258	3.359
0.066508	3.3595
0.10171	3.36
0.14711	3.3605
0.17211	3.361
0.18428	3.3615
0.18198	3.362
0.17112	3.3625
0.15665	3.363
0.13132	3.3635
0.14053	3.364
0.18987	3.3645
0.17079	3.365
0.056639	3.3655
-0.048961	3.366
-0.076265	3.3665
-0.075936	3.367
-0.086135	3.3675
-0.099622	3.368
-0.11739	3.3685
-0.16476	3.369
-0.22035	3.3695
-0.23187	3.37
-0.21345	3.3705
-0.19963	3.371
-0.17792	3.3715
-0.14305	3.372
-0.10521	3.3725
-0.076265	3.373
-0.059817	3.3735
-0.04929	3.374
-0.044026	3.3745
-0.039421	3.375
-0.030538	3.3755
-0.018037	3.376
-0.0075095	3.3765
0.00038545	3.377
0.0072935	3.3775
0.020452	3.378
0.046441	3.3785
0.093155	3.379
0.1675	3.3795
0.2129	3.38
0.22442	3.3805
0.2356	3.381
0.25271	3.3815
0.26027	3.382
0.25008	3.3825
0.19448	3.383
0.079667	3.3835
-0.017379	3.384
-0.044684	3.3845
-0.043039	3.385
-0.079884	3.3855
-0.13811	3.386
-0.1789	3.3865
-0.18515	3.387
-0.17792	3.3875
-0.17561	3.388
-0.16476	3.3885
-0.14074	3.389
-0.11475	3.3895
-0.098965	3.39
-0.087122	3.3905
-0.069357	3.391
-0.05225	3.3915
-0.038763	3.392
-0.025933	3.3925
-0.016393	3.393
-0.0065225	3.3935
0.0033465	3.394
0.010912	3.3945
0.020123	3.395
0.038546	3.3955
0.054337	3.396
0.067495	3.3965
0.081312	3.397
0.093484	3.3975
0.099735	3.398
0.1027	3.3985
0.1027	3.399
0.099077	3.3995
0.097103	3.4
0.093484	3.4005
0.082628	3.401
0.074075	3.4015
0.070785	3.402
0.068153	3.4025
0.068811	3.403
0.074404	3.4035
0.066508	3.404
0.053679	3.4045
0.060916	3.405
0.068811	3.4055
0.065193	3.406
0.049073	3.4065
0.024729	3.407
-0.0032335	3.4075
-0.033499	3.408
-0.048632	3.4085
-0.055211	3.409
-0.068041	3.4095
-0.091069	3.41
-0.11475	3.4105
-0.12824	3.411
-0.11706	3.4115
-0.10028	3.412
-0.097978	3.4125
-0.10291	3.413
-0.097649	3.4135
-0.083832	3.414
-0.070673	3.4145
-0.061133	3.415
-0.049948	3.4155
-0.031854	3.416
-0.015077	3.4165
-0.0025755	3.417
0.0049915	3.4175
0.010912	3.418
0.015847	3.4185
0.022097	3.419
0.025058	3.4195
0.028348	3.42
0.034598	3.4205
0.034598	3.421
0.022426	3.4215
0.010912	3.422
0.013215	3.4225
0.02769	3.423
0.039204	3.4235
0.042822	3.424
0.052363	3.4245
0.072101	3.425
0.07868	3.4255
0.065522	3.426
0.046112	3.4265
0.021439	3.427
-0.0022465	3.4275
-0.020669	3.428
-0.021327	3.4285
-0.0055355	3.429
0.0063075	3.4295
-0.00027255	3.43
-0.017708	3.4305
-0.027578	3.431
-0.029222	3.4315
-0.032512	3.432
-0.034486	3.4325
-0.02988	3.433
-0.020998	3.4335
-0.014748	3.434
-0.0088255	3.4345
-0.0042205	3.435
-0.00093055	3.4355
0.0099255	3.436
0.024071	3.4365
0.036572	3.437
0.044796	3.4375
0.039862	3.438
0.02769	3.4385
0.020452	3.439
0.016834	3.4395
0.022097	3.44
0.035585	3.4405
0.041836	3.441
0.035585	3.4415
0.023413	3.442
0.016834	3.4425
0.023742	3.443
0.028677	3.4435
0.020781	3.444
0.023084	3.4445
0.039533	3.445
0.058613	3.4455
0.062232	3.446
0.041836	3.4465
0.019465	3.447
0.051047	3.4475
0.086905	3.448
0.063877	3.4485
0.015518	3.449
-0.029551	3.4495
-0.073634	3.45
-0.10785	3.4505
-0.1312	3.451
-0.16147	3.4515
-0.17068	3.452
-0.13811	3.4525
-0.098307	3.453
-0.086464	3.4535
-0.096991	3.454
-0.10719	3.4545
-0.1039	3.455
-0.094359	3.4555
-0.075936	3.456
-0.030209	3.4565
0.065193	3.457
0.14678	3.4575
0.16981	3.458
0.23692	3.4585
0.38331	3.459
0.49615	3.4595
0.47871	3.46
0.36423	3.4605
0.26389	3.461
0.20237	3.4615
0.12704	3.462
0.034269	3.4625
-0.053566	3.463
-0.14765	3.4635
-0.26115	3.464
-0.35721	3.4645
-0.39372	3.465
-0.38418	3.4655
-0.35359	3.466
-0.31773	3.4665
-0.29733	3.467
-0.29733	3.4675
-0.28319	3.468
-0.24667	3.4685
-0.21246	3.469
-0.1868	3.4695
-0.15555	3.47
-0.11936	3.4705
-0.088108	3.471
-0.067712	3.4715
-0.051593	3.472
-0.031196	3.4725
-0.011787	3.473
0.0026885	3.4735
0.01157	3.474
0.021439	3.4745
0.035256	3.475
0.047757	3.4755
0.059929	3.476
0.075391	3.4765
0.08526	3.477
0.086576	3.4775
0.083286	3.478
0.085918	3.4785
0.091839	3.479
0.09809	3.4795
0.13329	3.48
0.21422	3.4805
0.28429	3.481
0.29975	3.4815
0.26718	3.482
0.2379	3.4825
0.24909	3.483
0.25567	3.4835
0.19185	3.484
0.066837	3.4845
-0.037776	3.485
-0.069357	3.4855
-0.056527	3.486
-0.062449	3.4865
-0.096662	3.487
-0.12726	3.4875
-0.14173	3.488
-0.14995	3.4885
-0.13877	3.489
-0.11377	3.4895
-0.094688	3.49
-0.082516	3.4905
-0.071002	3.491
-0.056527	3.4915
-0.038434	3.492
-0.021656	3.4925
-0.012445	3.493
-0.0108	3.4935
-0.0081675	3.494
0.0033465	3.4945
0.012557	3.495
0.017821	3.4955
0.020781	3.496
0.029006	3.4965
0.04052	3.497
0.042494	3.4975
0.032624	3.498
0.022756	3.4985
0.026045	3.499
0.033611	3.4995
0.034598	3.5
0.030979	3.5005
0.026374	3.501
0.019465	3.5015
0.011899	3.502
0.0066365	3.5025
0.0063075	3.503
0.0082805	3.5035
0.0089385	3.504
0.0046625	3.5045
0.0013725	3.505
0.00071445	3.5055
-0.00093055	3.506
0.00038545	3.5065
-0.00027255	3.507
-0.0012595	3.5075
-0.0032335	3.508
-0.00027255	3.5085
0.0095965	3.509
0.01486	3.5095
0.01486	3.51
0.013215	3.5105
0.01157	3.511
0.0099255	3.5115
0.010254	3.512
0.01157	3.5125
0.0092675	3.513
0.0079515	3.5135
0.0079515	3.514
0.0089385	3.5145
0.0092675	3.515
0.011899	3.5155
0.020123	3.516
0.030651	3.5165
0.035914	3.517
0.031966	3.5175
0.029006	3.518
0.036901	3.5185
0.07243	3.519
0.10072	3.5195
0.089208	3.52
0.070456	3.5205
0.078023	3.521
0.092497	3.5215
0.074733	3.522
0.019794	3.5225
-0.031854	3.523
-0.022643	3.5235
0.044796	3.524
0.11125	3.5245
0.12474	3.525
0.10763	3.5255
0.083286	3.526
0.064535	3.5265
0.05335	3.527
0.034598	3.5275
-0.0071805	3.528
-0.071331	3.5285
-0.13647	3.529
-0.19733	3.5295
-0.24141	3.53
-0.24865	3.5305
-0.23516	3.531
-0.222	3.5315
-0.20259	3.532
-0.17331	3.5325
-0.14699	3.533
-0.13482	3.5335
-0.12726	3.534
-0.11179	3.5345
-0.088108	3.535
-0.069686	3.5355
-0.056856	3.536
-0.042052	3.5365
-0.024617	3.537
-0.0015885	3.5375
0.033611	3.538
0.064206	3.5385
0.083286	3.539
0.096774	3.5395
0.11125	3.54
0.12441	3.5405
0.13362	3.541
0.13165	3.5415
0.11421	3.542
0.090523	3.5425
0.067166	3.543
0.030979	3.5435
-0.021985	3.544
-0.066396	3.5445
-0.085806	3.545
-0.085148	3.5455
-0.080542	3.546
-0.081858	3.5465
-0.078239	3.547
-0.059488	3.5475
-0.041723	3.548
-0.035802	3.5485
-0.024617	3.549
-0.0032335	3.5495
0.015847	3.55
0.025058	3.5505
0.023413	3.551
0.015518	3.5515
0.014202	3.552
0.038875	3.5525
0.10895	3.553
0.18099	3.5535
0.21849	3.554
0.22244	3.5545
0.20402	3.555
0.19086	3.5555
0.18362	3.556
0.14941	3.5565
0.096116	3.557
0.077694	3.5575
0.098419	3.558
0.10533	3.5585
0.052692	3.559
-0.028893	3.5595
-0.089095	3.56
-0.10521	3.5605
-0.099951	3.561
-0.10324	3.5615
-0.13811	3.562
-0.19502	3.5625
-0.21739	3.563
-0.17923	3.5635
-0.13515	3.564
-0.14338	3.5645
-0.16476	3.565
-0.16048	3.5655
-0.15259	3.566
-0.15094	3.5665
-0.14107	3.567
-0.11475	3.5675
-0.080871	3.568
-0.045671	3.5685
-0.018695	3.569
0.0036755	3.5695
0.014202	3.57
0.016505	3.5705
0.023084	3.571
0.031308	3.5715
0.038546	3.572
0.050389	3.5725
0.071114	3.573
0.093813	3.5735
0.11684	3.574
0.15336	3.5745
0.19316	3.575
0.22705	3.5755
0.24185	3.576
0.24909	3.5765
0.27639	3.577
0.29449	3.5775
0.26685	3.578
0.21849	3.5785
0.17441	3.579
0.13066	3.5795
0.065522	3.58
-0.021327	3.5805
-0.11179	3.581
-0.17364	3.5815
-0.2016	3.582
-0.20917	3.5825
-0.20588	3.583
-0.20029	3.5835
-0.19634	3.584
-0.18943	3.5845
-0.18483	3.585
-0.17923	3.5855
-0.16048	3.586
-0.13976	3.5865
-0.12429	3.587
-0.10653	3.5875
-0.088766	3.588
-0.072647	3.5885
-0.054882	3.589
-0.032512	3.5895
-0.017379	3.59
-0.0078385	3.5905
0.00038545	3.591
0.0099255	3.5915
0.019136	3.592
0.027032	3.5925
0.031308	3.593
0.034927	3.5935
0.045125	3.594
0.068153	3.5945
0.076378	3.595
0.069469	3.5955
0.070127	3.596
0.076049	3.5965
0.077365	3.597
0.073417	3.5975
0.065193	3.598
0.04348	3.5985
0.018808	3.599
0.018808	3.5995
0.04348	3.6
0.064206	3.6005
0.06289	3.601
0.054008	3.6015
0.046441	3.602
0.049402	3.6025
0.054008	3.603
0.034927	3.6035
0.0046625	3.604
-0.013432	3.6045
-0.016721	3.605
-0.024288	3.6055
-0.038434	3.606
-0.050935	3.6065
-0.056198	3.607
-0.059488	3.6075
-0.059488	3.608
-0.054882	3.6085
-0.043039	3.609
-0.02988	3.6095
-0.024288	3.61
-0.020011	3.6105
-0.012116	3.611
-0.0055355	3.6115
-0.0015885	3.612
0.0023595	3.6125
0.0072935	3.613
0.012228	3.6135
0.018479	3.614
0.017163	3.6145
0.013544	3.615
0.017163	3.6155
0.024071	3.616
0.019136	3.6165
0.017163	3.617
0.033282	3.6175
0.053679	3.618
0.067824	3.6185
0.063219	3.619
0.042165	3.6195
0.023413	3.62
0.020781	3.6205
0.024729	3.621
0.016505	3.6215
-0.0055355	3.622
-0.02363	3.6225
-0.034157	3.623
-0.037776	3.6235
-0.036131	3.624
-0.026262	3.6245
-0.021327	3.625
-0.027578	3.6255
-0.030209	3.626
-0.024946	3.6265
-0.026262	3.627
-0.031196	3.6275
-0.031196	3.628
-0.02692	3.6285
-0.024288	3.629
-0.012116	3.6295
0.0043335	3.63
0.015518	3.6305
0.020123	3.631
0.01815	3.6315
0.0099255	3.632
0.0017015	3.6325
-0.0081675	3.633
-0.023959	3.6335
-0.034157	3.634
-0.02692	3.6345
0.0049915	3.635
0.057626	3.6355
0.097761	3.636
0.11092	3.6365
0.093813	3.637
0.08197	3.6375
0.1198	3.638
0.16685	3.6385
0.17014	3.639
0.1379	3.6395
0.11289	3.64
0.10105	3.6405
0.092826	3.641
0.077694	3.6415
0.059271	3.642
0.048744	3.6425
0.04052	3.643
0.027032	3.6435
0.012886	3.644
0.017821	3.6445
0.034598	3.645
0.015518	3.6455
-0.034157	3.646
-0.074621	3.6465
-0.11114	3.647
-0.15423	3.6475
-0.20259	3.648
-0.24667	3.6485
-0.26773	3.649
-0.26871	3.6495
-0.26411	3.65
-0.25621	3.6505
-0.22726	3.651
-0.18844	3.6515
-0.16114	3.652
-0.13976	3.6525
-0.11245	3.653
-0.089424	3.6535
-0.075936	3.654
-0.062449	3.6545
-0.043368	3.655
-0.016721	3.6555
0.016505	3.656
0.042165	3.6565
0.065193	3.657
0.094471	3.6575
0.12901	3.658
0.16619	3.6585
0.1777	3.659
0.15862	3.6595
0.13329	3.66
0.10928	3.6605
0.079996	3.661
0.054994	3.6615
0.03394	3.662
0.0023595	3.6625
-0.035473	3.663
-0.041394	3.6635
-0.021656	3.664
-0.0084965	3.6645
-0.0055355	3.665
-0.00027255	3.6655
0.0066365	3.666
0.0043335	3.6665
-0.0022465	3.667
-0.010142	3.6675
-0.016064	3.668
-0.0068515	3.6685
0.0049915	3.669
0.0036755	3.6695
-0.0029045	3.67
0.0020305	3.6705
0.013215	3.671
0.017163	3.6715
0.015518	3.672
0.014531	3.6725
0.019136	3.673
0.026374	3.6735
0.036572	3.674
0.040191	3.6745
0.036572	3.675
0.036572	3.6755
0.040191	3.676
0.046112	3.6765
0.043809	3.677
0.036572	3.6775
0.032624	3.678
0.031308	3.6785
0.035256	3.679
0.035585	3.6795
0.02769	3.68
0.0244	3.6805
0.033611	3.681
0.053021	3.6815
0.06289	3.682
0.046112	3.6825
0.025058	3.683
0.025387	3.6835
0.028677	3.684
0.026703	3.6845
0.018808	3.685
0.0092675	3.6855
-0.0019175	3.686
-0.0081675	3.6865
-0.0035625	3.687
-0.011458	3.6875
-0.042052	3.688
-0.077252	3.6885
-0.10225	3.689
-0.09732	3.6895
-0.070015	3.69
-0.052579	3.6905
-0.049619	3.691
-0.038105	3.6915
-0.017379	3.692
-0.0012595	3.6925
0.0076225	3.693
0.013215	3.6935
0.016176	3.694
0.011899	3.6945
0.0082805	3.695
0.0043335	3.6955
-0.00027255	3.696
-0.0025755	3.6965
-0.00027255	3.697
-0.00060155	3.6975
-0.00093055	3.698
-0.0052065	3.6985
-0.012116	3.699
-0.0061935	3.6995
0.018808	3.7
0.05631	3.7005
0.11947	3.701
0.16981	3.7015
0.17474	3.702
0.1675	3.7025
0.17112	3.703
0.1902	3.7035
0.17704	3.704
0.095129	3.7045
-0.017379	3.705
-0.092385	3.7055
-0.10916	3.706
-0.091727	3.7065
-0.09074	3.707
-0.12956	3.7075
-0.1743	3.708
-0.17068	3.7085
-0.13318	3.709
-0.10554	3.7095
-0.096333	3.71
-0.095346	3.7105
-0.092714	3.711
-0.085806	3.7115
-0.085806	3.712
-0.086135	3.7125
-0.072647	3.713
-0.05225	3.7135
-0.038434	3.714
-0.034815	3.7145
-0.034157	3.715
-0.029551	3.7155
-0.020998	3.716
-0.013432	3.7165
-0.013103	3.717
-0.015406	3.7175
-0.0075095	3.718
0.018479	3.7185
0.044138	3.719
0.061574	3.7195
0.092826	3.72
0.13066	3.7205
0.17902	3.721
0.24679	3.7215
0.2833	3.722
0.26126	3.7225
0.23034	3.723
0.21093	3.7235
0.17639	3.724
0.12309	3.7245
0.08855	3.725
0.056639	3.7255
-0.02034	3.726
-0.12331	3.7265
-0.18154	3.727
-0.20127	3.7275
-0.21838	3.728
-0.23746	3.7285
-0.24141	3.729
-0.22726	3.7295
-0.19766	3.73
-0.15917	3.7305
-0.12693	3.731
-0.1085	3.7315
-0.1016	3.732
-0.096333	3.7325
-0.088108	3.733
-0.087779	3.7335
-0.093701	3.734
-0.086793	3.7345
-0.05883	3.735
-0.024946	3.7355
0.0056495	3.736
0.028348	3.7365
0.041507	3.737
0.052363	3.7375
0.065851	3.738
0.070785	3.7385
0.061903	3.739
0.048415	3.7395
0.045125	3.74
0.043151	3.7405
0.036901	3.741
0.022756	3.7415
0.0099255	3.742
0.013215	3.7425
0.029664	3.743
0.032295	3.7435
0.017492	3.744
0.0023595	3.7445
0.0036755	3.745
0.012228	3.7455
0.016834	3.746
0.023413	3.7465
0.01815	3.747
0.010912	3.7475
0.013873	3.748
0.022756	3.7485
0.02111	3.749
0.017821	3.7495
0.026374	3.75
0.040191	3.7505
0.049402	3.751
0.055652	3.7515
0.064535	3.752
0.071772	3.7525
0.075391	3.753
0.077365	3.7535
0.069798	3.754
0.048744	3.7545
0.034269	3.755
0.010912	3.7555
-0.014419	3.756
-0.016393	3.7565
-0.0022465	3.757
0.00038545	3.7575
-0.0042205	3.758
0.021439	3.7585
0.088879	3.759
0.13066	3.7595
0.10829	3.76
0.064864	3.7605
0.048415	3.761
0.052363	3.7615
0.049073	3.762
0.010583	3.7625
-0.047645	3.763
-0.07166	3.7635
-0.054553	3.764
-0.031854	3.7645
-0.025275	3.765
-0.032512	3.7655
-0.050935	3.766
-0.072318	3.7665
-0.078239	3.767
-0.060146	3.7675
-0.037776	3.768
-0.0045495	3.7685
0.043809	3.769
0.075062	3.7695
0.08197	3.77
0.086905	3.7705
0.083615	3.771
0.064206	3.7715
0.035585	3.772
0.015847	3.7725
-0.017379	3.773
-0.073963	3.7735
-0.11278	3.774
-0.12265	3.7745
-0.12331	3.775
-0.1164	3.7755
-0.10192	3.776
-0.092385	3.7765
-0.093372	3.777
-0.10521	3.7775
-0.11048	3.778
-0.095017	3.7785
-0.056527	3.779
-0.0075095	3.7795
0.039862	3.78
0.10829	3.7805
0.21422	3.781
0.32574	3.7815
0.42739	3.782
0.48167	3.7825
0.47279	3.783
0.47674	3.7835
0.49713	3.784
0.45634	3.7845
0.32673	3.785
0.17211	3.7855
0.029006	3.786
-0.085148	3.7865
-0.19075	3.787
-0.31148	3.7875
-0.41544	3.788
-0.48287	3.7885
-0.524	3.789
-0.53715	3.7895
-0.54143	3.79
-0.52433	3.7905
-0.46807	3.791
-0.39175	3.7915
-0.31707	3.792
-0.25161	3.7925
-0.19864	3.793
-0.15522	3.7935
-0.12923	3.794
-0.11015	3.7945
-0.082516	3.795
-0.061133	3.7955
-0.046658	3.796
-0.019682	3.7965
0.028677	3.797
0.067495	3.7975
0.06914	3.798
0.061245	3.7985
0.06289	3.799
0.069798	3.7995
0.073746	3.8
0.07572	3.8005
0.075391	3.801
0.074404	3.8015
0.065522	3.802
0.044467	3.8025
0.045125	3.803
0.082957	3.8035
0.11816	3.804
0.11717	3.8045
0.10039	3.805
0.0948	3.8055
0.089208	3.806
0.07572	3.8065
0.065522	3.807
0.078023	3.8075
